wavelength,absorbance,subtracted_absorbance
3.000000000000000000e+02,1.445999999999999952e+00,7.891666666666664609e-01
3.050000000000000000e+02,1.286999999999999922e+00,7.731666666666666687e-01
3.100000000000000000e+02,1.207000000000000073e+00,7.546666666666668188e-01
3.150000000000000000e+02,1.151999999999999913e+00,7.383333333333332860e-01
3.200000000000000000e+02,1.094999999999999973e+00,7.196666666666666767e-01
3.250000000000000000e+02,1.048000000000000043e+00,7.045000000000001261e-01
3.300000000000000000e+02,1.006000000000000005e+00,6.896666666666666501e-01
3.350000000000000000e+02,9.659999999999999698e-01,6.778333333333332877e-01
3.400000000000000000e+02,9.320000000000000506e-01,6.668333333333333890e-01
3.450000000000000000e+02,9.070000000000000284e-01,6.580000000000000293e-01
3.500000000000000000e+02,8.880000000000000115e-01,6.498333333333333739e-01
3.550000000000000000e+02,8.699999999999999956e-01,6.420000000000000151e-01
3.600000000000000000e+02,8.469999999999999751e-01,6.336666666666666003e-01
3.650000000000000000e+02,8.120000000000000551e-01,6.226666666666667016e-01
3.700000000000000000e+02,7.399999999999999911e-01,6.028333333333333321e-01
3.750000000000000000e+02,6.690000000000000391e-01,5.810000000000000719e-01
3.800000000000000000e+02,6.360000000000000098e-01,5.671666666666667078e-01
3.850000000000000000e+02,6.169999999999999929e-01,5.571666666666666989e-01
3.900000000000000000e+02,6.039999999999999813e-01,5.484999999999999876e-01
3.950000000000000000e+02,5.929999999999999716e-01,5.401666666666666838e-01
4.000000000000000000e+02,5.829999999999999627e-01,5.321666666666666767e-01
4.050000000000000000e+02,5.729999999999999538e-01,5.238333333333332620e-01
4.100000000000000000e+02,5.639999999999999458e-01,5.158333333333332549e-01
4.150000000000000000e+02,5.560000000000000497e-01,5.088333333333333597e-01
4.200000000000000000e+02,5.490000000000000435e-01,5.030000000000000027e-01
4.250000000000000000e+02,5.420000000000000373e-01,4.965000000000000524e-01
4.300000000000000000e+02,5.370000000000000329e-01,4.925000000000000488e-01
4.350000000000000000e+02,5.310000000000000275e-01,4.873333333333333961e-01
4.400000000000000000e+02,5.270000000000000240e-01,4.838333333333333375e-01
4.450000000000000000e+02,5.240000000000000213e-01,4.816666666666666874e-01
4.500000000000000000e+02,5.230000000000000204e-01,4.810000000000000386e-01
4.550000000000000000e+02,5.220000000000000195e-01,4.805000000000000382e-01
4.600000000000000000e+02,5.240000000000000213e-01,4.830000000000000404e-01
4.650000000000000000e+02,5.270000000000000240e-01,4.866666666666666918e-01
4.700000000000000000e+02,5.320000000000000284e-01,4.920000000000000484e-01
4.750000000000000000e+02,5.390000000000000346e-01,4.993333333333333512e-01
4.800000000000000000e+02,5.490000000000000435e-01,5.096666666666667123e-01
4.850000000000000000e+02,5.610000000000000542e-01,5.218333333333333712e-01
4.900000000000000000e+02,5.769999999999999574e-01,5.381666666666665710e-01
4.950000000000000000e+02,5.939999999999999725e-01,5.553333333333333455e-01
5.000000000000000000e+02,6.139999999999999902e-01,5.753333333333333632e-01
5.050000000000000000e+02,6.340000000000000080e-01,5.956666666666666776e-01
5.100000000000000000e+02,6.540000000000000258e-01,6.156666666666666954e-01
5.150000000000000000e+02,6.710000000000000409e-01,6.325000000000000622e-01
5.200000000000000000e+02,6.840000000000000524e-01,6.455000000000000737e-01
5.250000000000000000e+02,6.939999999999999503e-01,6.556666666666666199e-01
5.300000000000000000e+02,6.969999999999999529e-01,6.584999999999999742e-01
5.350000000000000000e+02,6.949999999999999512e-01,6.563333333333333242e-01
5.400000000000000000e+02,6.860000000000000542e-01,6.471666666666666679e-01
5.450000000000000000e+02,6.730000000000000426e-01,6.341666666666666563e-01
5.500000000000000000e+02,6.550000000000000266e-01,6.161666666666666403e-01
5.550000000000000000e+02,6.310000000000000053e-01,5.919999999999999707e-01
5.600000000000000000e+02,6.039999999999999813e-01,5.651666666666665950e-01
5.650000000000000000e+02,5.739999999999999547e-01,5.348333333333332718e-01
5.700000000000000000e+02,5.420000000000000373e-01,5.028333333333333544e-01
5.750000000000000000e+02,5.100000000000000089e-01,4.708333333333333259e-01
5.800000000000000000e+02,4.779999999999999805e-01,4.388333333333332975e-01
5.850000000000000000e+02,4.470000000000000084e-01,4.078333333333333255e-01
5.900000000000000000e+02,4.159999999999999809e-01,3.763333333333332975e-01
5.950000000000000000e+02,3.880000000000000115e-01,3.485000000000000320e-01
6.000000000000000000e+02,3.619999999999999885e-01,3.221666666666666567e-01
6.050000000000000000e+02,3.370000000000000218e-01,2.971666666666666901e-01
6.100000000000000000e+02,3.140000000000000013e-01,2.741666666666666696e-01
6.150000000000000000e+02,2.929999999999999827e-01,2.535000000000000031e-01
6.200000000000000000e+02,2.730000000000000204e-01,2.336666666666666892e-01
6.250000000000000000e+02,2.550000000000000044e-01,2.156666666666666732e-01
6.300000000000000000e+02,2.389999999999999902e-01,1.998333333333333073e-01
6.350000000000000000e+02,2.250000000000000056e-01,1.858333333333333504e-01
6.400000000000000000e+02,2.119999999999999940e-01,1.731666666666666632e-01
6.450000000000000000e+02,2.000000000000000111e-01,1.611666666666666803e-01
6.500000000000000000e+02,1.890000000000000013e-01,1.503333333333333188e-01
6.550000000000000000e+02,1.799999999999999933e-01,1.413333333333333108e-01
6.600000000000000000e+02,1.710000000000000131e-01,1.321666666666666823e-01
6.650000000000000000e+02,1.620000000000000051e-01,1.233333333333333365e-01
6.700000000000000000e+02,1.539999999999999980e-01,1.154999999999999916e-01
6.750000000000000000e+02,1.469999999999999918e-01,1.084999999999999853e-01
6.800000000000000000e+02,1.409999999999999865e-01,1.026666666666666561e-01
6.850000000000000000e+02,1.350000000000000089e-01,9.666666666666667851e-02
6.900000000000000000e+02,1.300000000000000044e-01,9.183333333333333626e-02
6.950000000000000000e+02,1.250000000000000000e-01,8.666666666666666963e-02
7.000000000000000000e+02,1.199999999999999956e-01,8.149999999999998912e-02
7.050000000000000000e+02,1.170000000000000068e-01,7.766666666666666163e-02
7.100000000000000000e+02,1.140000000000000041e-01,7.333333333333333370e-02
7.150000000000000000e+02,1.120000000000000023e-01,7.033333333333333104e-02
7.200000000000000000e+02,1.089999999999999997e-01,6.716666666666666619e-02
7.250000000000000000e+02,1.069999999999999979e-01,6.433333333333332571e-02
7.300000000000000000e+02,1.049999999999999961e-01,6.050000000000000516e-02
7.350000000000000000e+02,1.039999999999999952e-01,5.750000000000000250e-02
7.400000000000000000e+02,1.029999999999999943e-01,5.600000000000000117e-02
7.450000000000000000e+02,1.000000000000000056e-01,5.283333333333334325e-02
7.500000000000000000e+02,9.800000000000000377e-02,5.083333333333334147e-02
7.550000000000000000e+02,9.600000000000000200e-02,4.883333333333333970e-02
7.600000000000000000e+02,9.400000000000000022e-02,4.683333333333333792e-02
7.650000000000000000e+02,9.199999999999999845e-02,4.516666666666666746e-02
7.700000000000000000e+02,8.999999999999999667e-02,4.350000000000000394e-02
7.750000000000000000e+02,8.799999999999999489e-02,4.183333333333333348e-02
7.800000000000000000e+02,8.599999999999999312e-02,4.050000000000000128e-02
7.850000000000000000e+02,8.400000000000000522e-02,3.883333333333334469e-02
7.900000000000000000e+02,8.200000000000000344e-02,3.766666666666667468e-02
7.950000000000000000e+02,8.000000000000000167e-02,3.600000000000001116e-02
8.000000000000000000e+02,7.799999999999999989e-02,3.483333333333333420e-02
8.050000000000000000e+02,7.599999999999999811e-02,3.283333333333333243e-02
8.100000000000000000e+02,7.499999999999999722e-02,3.199999999999999373e-02
8.150000000000000000e+02,7.399999999999999634e-02,3.083333333333333065e-02
8.200000000000000000e+02,7.399999999999999634e-02,3.016666666666666802e-02
8.250000000000000000e+02,7.399999999999999634e-02,2.933333333333333626e-02
8.300000000000000000e+02,7.499999999999999722e-02,2.800000000000000405e-02
8.350000000000000000e+02,7.599999999999999811e-02,2.666666666666666491e-02
8.400000000000000000e+02,7.599999999999999811e-02,2.616666666666666446e-02
8.450000000000000000e+02,7.599999999999999811e-02,2.533333333333333270e-02
8.500000000000000000e+02,7.599999999999999811e-02,2.450000000000000094e-02
8.550000000000000000e+02,7.599999999999999811e-02,2.400000000000000050e-02
8.600000000000000000e+02,7.599999999999999811e-02,2.249999999999999917e-02
8.650000000000000000e+02,7.699999999999999900e-02,2.149999999999999828e-02
8.700000000000000000e+02,7.900000000000000078e-02,2.050000000000000433e-02
8.750000000000000000e+02,8.200000000000000344e-02,2.083333333333333565e-02
8.800000000000000000e+02,8.000000000000000167e-02,1.966666666666667257e-02
8.850000000000000000e+02,7.900000000000000078e-02,1.950000000000000344e-02
8.900000000000000000e+02,7.799999999999999989e-02,1.883333333333333387e-02
8.950000000000000000e+02,7.799999999999999989e-02,1.800000000000000211e-02
9.000000000000000000e+02,7.900000000000000078e-02,1.783333333333333298e-02
9.050000000000000000e+02,7.900000000000000078e-02,1.633333333333333859e-02
9.100000000000000000e+02,8.100000000000000255e-02,1.583333333333333814e-02
9.150000000000000000e+02,8.400000000000000522e-02,1.583333333333333814e-02
9.200000000000000000e+02,8.699999999999999400e-02,1.516666666666666163e-02
9.250000000000000000e+02,9.299999999999999933e-02,1.399999999999999856e-02
9.300000000000000000e+02,1.019999999999999934e-01,1.366666666666667418e-02
9.350000000000000000e+02,1.130000000000000032e-01,1.200000000000001066e-02
9.400000000000000000e+02,1.250000000000000000e-01,1.116666666666665808e-02
9.450000000000000000e+02,1.429999999999999882e-01,9.833333333333305060e-03
9.500000000000000000e+02,1.680000000000000104e-01,8.166666666666655416e-03
9.550000000000000000e+02,2.000000000000000111e-01,7.833333333333331039e-03
9.600000000000000000e+02,2.240000000000000047e-01,4.833333333333356130e-03
9.650000000000000000e+02,2.349999999999999867e-01,4.999999999999976685e-03
9.700000000000000000e+02,2.389999999999999902e-01,4.000000000000003553e-03
9.750000000000000000e+02,2.409999999999999920e-01,3.333333333333327042e-03
9.800000000000000000e+02,2.399999999999999911e-01,3.000000000000030420e-03
9.850000000000000000e+02,2.349999999999999867e-01,2.166666666666650087e-03
9.900000000000000000e+02,2.260000000000000064e-01,1.833333333333297954e-03
9.950000000000000000e+02,2.230000000000000038e-01,3.166666666666678731e-03
