wavelength,absorbance,subtracted_absorbance
3.000000000000000000e+02,6.260000000000000009e-01,-3.083333333333349024e-02
3.050000000000000000e+02,4.929999999999999938e-01,-2.083333333333325932e-02
3.100000000000000000e+02,4.359999999999999987e-01,-1.633333333333331083e-02
3.150000000000000000e+02,3.980000000000000204e-01,-1.566666666666660657e-02
3.200000000000000000e+02,3.609999999999999876e-01,-1.433333333333330906e-02
3.250000000000000000e+02,3.300000000000000155e-01,-1.349999999999990097e-02
3.300000000000000000e+02,3.049999999999999933e-01,-1.133333333333336190e-02
3.350000000000000000e+02,2.770000000000000240e-01,-1.116666666666660257e-02
3.400000000000000000e+02,2.550000000000000044e-01,-1.016666666666671270e-02
3.450000000000000000e+02,2.399999999999999911e-01,-8.999999999999980238e-03
3.500000000000000000e+02,2.290000000000000091e-01,-9.166666666666628549e-03
3.550000000000000000e+02,2.190000000000000002e-01,-8.999999999999980238e-03
3.600000000000000000e+02,2.049999999999999878e-01,-8.333333333333359239e-03
3.650000000000000000e+02,1.809999999999999942e-01,-8.333333333333331483e-03
3.700000000000000000e+02,1.320000000000000062e-01,-5.166666666666680507e-03
3.750000000000000000e+02,8.599999999999999312e-02,-1.999999999999987899e-03
3.800000000000000000e+02,6.900000000000000577e-02,1.666666666666621888e-04
3.850000000000000000e+02,5.999999999999999778e-02,1.666666666666691277e-04
3.900000000000000000e+02,5.600000000000000117e-02,5.000000000000004441e-04
3.950000000000000000e+02,5.299999999999999850e-02,1.666666666666621888e-04
4.000000000000000000e+02,5.099999999999999672e-02,1.666666666666621888e-04
4.050000000000000000e+02,5.000000000000000278e-02,8.333333333333386994e-04
4.100000000000000000e+02,4.800000000000000100e-02,-1.666666666666621888e-04
4.150000000000000000e+02,4.700000000000000011e-02,-1.666666666666621888e-04
4.200000000000000000e+02,4.599999999999999922e-02,6.938893903907228378e-18
4.250000000000000000e+02,4.499999999999999833e-02,-4.999999999999935052e-04
4.300000000000000000e+02,4.399999999999999745e-02,-4.999999999999935052e-04
4.350000000000000000e+02,4.399999999999999745e-02,3.333333333333382553e-04
4.400000000000000000e+02,4.299999999999999656e-02,-1.666666666666691277e-04
4.450000000000000000e+02,4.299999999999999656e-02,6.666666666666626329e-04
4.500000000000000000e+02,4.200000000000000261e-02,0.000000000000000000e+00
4.550000000000000000e+02,4.200000000000000261e-02,5.000000000000004441e-04
4.600000000000000000e+02,4.100000000000000172e-02,0.000000000000000000e+00
4.650000000000000000e+02,4.100000000000000172e-02,6.666666666666626329e-04
4.700000000000000000e+02,4.000000000000000083e-02,0.000000000000000000e+00
4.750000000000000000e+02,4.000000000000000083e-02,3.333333333333313164e-04
4.800000000000000000e+02,4.000000000000000083e-02,6.666666666666626329e-04
4.850000000000000000e+02,4.000000000000000083e-02,8.333333333333317605e-04
4.900000000000000000e+02,3.899999999999999994e-02,1.666666666666621888e-04
4.950000000000000000e+02,3.899999999999999994e-02,3.333333333333313164e-04
5.000000000000000000e+02,3.899999999999999994e-02,3.333333333333313164e-04
5.050000000000000000e+02,3.899999999999999994e-02,6.666666666666626329e-04
5.100000000000000000e+02,3.799999999999999906e-02,-3.333333333333382553e-04
5.150000000000000000e+02,3.799999999999999906e-02,-5.000000000000004441e-04
5.200000000000000000e+02,3.799999999999999906e-02,-5.000000000000004441e-04
5.250000000000000000e+02,3.799999999999999906e-02,-3.333333333333382553e-04
5.300000000000000000e+02,3.799999999999999906e-02,-5.000000000000004441e-04
5.350000000000000000e+02,3.799999999999999906e-02,-6.666666666666695718e-04
5.400000000000000000e+02,3.799999999999999906e-02,-8.333333333333386994e-04
5.450000000000000000e+02,3.799999999999999906e-02,-8.333333333333386994e-04
5.500000000000000000e+02,3.799999999999999906e-02,-8.333333333333386994e-04
5.550000000000000000e+02,3.799999999999999906e-02,-1.000000000000000888e-03
5.600000000000000000e+02,3.799999999999999906e-02,-8.333333333333386994e-04
5.650000000000000000e+02,3.799999999999999906e-02,-1.166666666666670016e-03
5.700000000000000000e+02,3.799999999999999906e-02,-1.166666666666670016e-03
5.750000000000000000e+02,3.799999999999999906e-02,-1.166666666666670016e-03
5.800000000000000000e+02,3.799999999999999906e-02,-1.166666666666670016e-03
5.850000000000000000e+02,3.799999999999999906e-02,-1.166666666666670016e-03
5.900000000000000000e+02,3.799999999999999906e-02,-1.666666666666670460e-03
5.950000000000000000e+02,3.799999999999999906e-02,-1.500000000000001332e-03
6.000000000000000000e+02,3.799999999999999906e-02,-1.833333333333339588e-03
6.050000000000000000e+02,3.799999999999999906e-02,-1.833333333333339588e-03
6.100000000000000000e+02,3.799999999999999906e-02,-1.833333333333339588e-03
6.150000000000000000e+02,3.799999999999999906e-02,-1.500000000000001332e-03
6.200000000000000000e+02,3.699999999999999817e-02,-2.333333333333340032e-03
6.250000000000000000e+02,3.699999999999999817e-02,-2.333333333333340032e-03
6.300000000000000000e+02,3.699999999999999817e-02,-2.166666666666670904e-03
6.350000000000000000e+02,3.699999999999999817e-02,-2.166666666666670904e-03
6.400000000000000000e+02,3.699999999999999817e-02,-1.833333333333339588e-03
6.450000000000000000e+02,3.699999999999999817e-02,-1.833333333333339588e-03
6.500000000000000000e+02,3.699999999999999817e-02,-1.666666666666670460e-03
6.550000000000000000e+02,3.699999999999999817e-02,-1.666666666666670460e-03
6.600000000000000000e+02,3.699999999999999817e-02,-1.833333333333339588e-03
6.650000000000000000e+02,3.699999999999999817e-02,-1.666666666666670460e-03
6.700000000000000000e+02,3.599999999999999728e-02,-2.500000000000002220e-03
6.750000000000000000e+02,3.599999999999999728e-02,-2.500000000000002220e-03
6.800000000000000000e+02,3.599999999999999728e-02,-2.333333333333340032e-03
6.850000000000000000e+02,3.599999999999999728e-02,-2.333333333333340032e-03
6.900000000000000000e+02,3.599999999999999728e-02,-2.166666666666670904e-03
6.950000000000000000e+02,3.699999999999999817e-02,-1.333333333333339144e-03
7.000000000000000000e+02,3.699999999999999817e-02,-1.500000000000001332e-03
7.050000000000000000e+02,3.699999999999999817e-02,-2.333333333333340032e-03
7.100000000000000000e+02,3.799999999999999906e-02,-2.666666666666664409e-03
7.150000000000000000e+02,3.899999999999999994e-02,-2.666666666666664409e-03
7.200000000000000000e+02,4.000000000000000083e-02,-1.833333333333332649e-03
7.250000000000000000e+02,4.000000000000000083e-02,-2.666666666666664409e-03
7.300000000000000000e+02,4.200000000000000261e-02,-2.499999999999988343e-03
7.350000000000000000e+02,4.399999999999999745e-02,-2.499999999999995282e-03
7.400000000000000000e+02,4.499999999999999833e-02,-1.999999999999994837e-03
7.450000000000000000e+02,4.499999999999999833e-02,-2.166666666666663965e-03
7.500000000000000000e+02,4.499999999999999833e-02,-2.166666666666663965e-03
7.550000000000000000e+02,4.499999999999999833e-02,-2.166666666666663965e-03
7.600000000000000000e+02,4.499999999999999833e-02,-2.166666666666663965e-03
7.650000000000000000e+02,4.499999999999999833e-02,-1.833333333333332649e-03
7.700000000000000000e+02,4.499999999999999833e-02,-1.499999999999994393e-03
7.750000000000000000e+02,4.399999999999999745e-02,-2.166666666666663965e-03
7.800000000000000000e+02,4.399999999999999745e-02,-1.499999999999994393e-03
7.850000000000000000e+02,4.399999999999999745e-02,-1.166666666666663077e-03
7.900000000000000000e+02,4.299999999999999656e-02,-1.333333333333332205e-03
7.950000000000000000e+02,4.299999999999999656e-02,-9.999999999999939493e-04
8.000000000000000000e+02,4.200000000000000261e-02,-1.166666666666663077e-03
8.050000000000000000e+02,4.200000000000000261e-02,-1.166666666666663077e-03
8.100000000000000000e+02,4.200000000000000261e-02,-1.000000000000000888e-03
8.150000000000000000e+02,4.200000000000000261e-02,-1.166666666666663077e-03
8.200000000000000000e+02,4.299999999999999656e-02,-8.333333333333317605e-04
8.250000000000000000e+02,4.399999999999999745e-02,-6.666666666666626329e-04
8.300000000000000000e+02,4.599999999999999922e-02,-9.999999999999939493e-04
8.350000000000000000e+02,4.800000000000000100e-02,-1.333333333333332205e-03
8.400000000000000000e+02,4.900000000000000189e-02,-8.333333333333317605e-04
8.450000000000000000e+02,4.900000000000000189e-02,-1.666666666666663521e-03
8.500000000000000000e+02,5.000000000000000278e-02,-1.499999999999994393e-03
8.550000000000000000e+02,5.099999999999999672e-02,-1.000000000000000888e-03
8.600000000000000000e+02,5.199999999999999761e-02,-1.500000000000001332e-03
8.650000000000000000e+02,5.399999999999999939e-02,-1.500000000000001332e-03
8.700000000000000000e+02,5.700000000000000205e-02,-1.499999999999994393e-03
8.750000000000000000e+02,5.999999999999999778e-02,-1.166666666666670016e-03
8.800000000000000000e+02,5.899999999999999689e-02,-1.333333333333332205e-03
8.850000000000000000e+02,5.800000000000000294e-02,-1.499999999999994393e-03
8.900000000000000000e+02,5.800000000000000294e-02,-1.166666666666663077e-03
8.950000000000000000e+02,5.899999999999999689e-02,-1.000000000000000888e-03
9.000000000000000000e+02,5.999999999999999778e-02,-1.166666666666670016e-03
9.050000000000000000e+02,6.099999999999999867e-02,-1.666666666666663521e-03
9.100000000000000000e+02,6.300000000000000044e-02,-2.166666666666663965e-03
9.150000000000000000e+02,6.600000000000000311e-02,-2.166666666666663965e-03
9.200000000000000000e+02,7.000000000000000666e-02,-1.833333333333325710e-03
9.250000000000000000e+02,7.599999999999999811e-02,-3.000000000000002665e-03
9.300000000000000000e+02,8.500000000000000611e-02,-3.333333333333313164e-03
9.350000000000000000e+02,9.600000000000000200e-02,-4.999999999999990563e-03
9.400000000000000000e+02,1.079999999999999988e-01,-5.833333333333343140e-03
9.450000000000000000e+02,1.260000000000000009e-01,-7.166666666666682284e-03
9.500000000000000000e+02,1.499999999999999944e-01,-9.833333333333360571e-03
9.550000000000000000e+02,1.809999999999999942e-01,-1.116666666666668584e-02
9.600000000000000000e+02,2.049999999999999878e-01,-1.416666666666666075e-02
9.650000000000000000e+02,2.149999999999999967e-01,-1.500000000000001332e-02
9.700000000000000000e+02,2.200000000000000011e-01,-1.499999999999998557e-02
9.750000000000000000e+02,2.220000000000000029e-01,-1.566666666666666208e-02
9.800000000000000000e+02,2.220000000000000029e-01,-1.499999999999995781e-02
9.850000000000000000e+02,2.179999999999999993e-01,-1.483333333333333726e-02
9.900000000000000000e+02,2.099999999999999922e-01,-1.416666666666671626e-02
9.950000000000000000e+02,2.069999999999999896e-01,-1.283333333333333548e-02
