wavelength,absorbance,subtracted_absorbance
3.000000000000000000e+02,8.559999999999999831e-01,1.991666666666664920e-01
3.050000000000000000e+02,7.009999999999999565e-01,1.871666666666667034e-01
3.100000000000000000e+02,6.280000000000000027e-01,1.756666666666666932e-01
3.150000000000000000e+02,5.799999999999999600e-01,1.663333333333333330e-01
3.200000000000000000e+02,5.300000000000000266e-01,1.546666666666667300e-01
3.250000000000000000e+02,4.849999999999999867e-01,1.415000000000000702e-01
3.300000000000000000e+02,4.460000000000000075e-01,1.296666666666666523e-01
3.350000000000000000e+02,4.040000000000000258e-01,1.158333333333333992e-01
3.400000000000000000e+02,3.689999999999999947e-01,1.038333333333332775e-01
3.450000000000000000e+02,3.430000000000000271e-01,9.400000000000005573e-02
3.500000000000000000e+02,3.240000000000000102e-01,8.583333333333337256e-02
3.550000000000000000e+02,3.079999999999999960e-01,8.000000000000001554e-02
3.600000000000000000e+02,2.879999999999999782e-01,7.466666666666663121e-02
3.650000000000000000e+02,2.560000000000000053e-01,6.666666666666667962e-02
3.700000000000000000e+02,1.880000000000000004e-01,5.083333333333331372e-02
3.750000000000000000e+02,1.219999999999999973e-01,3.400000000000001632e-02
3.800000000000000000e+02,9.600000000000000200e-02,2.716666666666665841e-02
3.850000000000000000e+02,8.400000000000000522e-02,2.416666666666667657e-02
3.900000000000000000e+02,7.699999999999999900e-02,2.149999999999999828e-02
3.950000000000000000e+02,7.299999999999999545e-02,2.016666666666665914e-02
4.000000000000000000e+02,6.900000000000000577e-02,1.816666666666667124e-02
4.050000000000000000e+02,6.600000000000000311e-02,1.683333333333333903e-02
4.100000000000000000e+02,6.300000000000000044e-02,1.483333333333333726e-02
4.150000000000000000e+02,6.099999999999999867e-02,1.383333333333333637e-02
4.200000000000000000e+02,5.899999999999999689e-02,1.300000000000000461e-02
4.250000000000000000e+02,5.700000000000000205e-02,1.150000000000001021e-02
4.300000000000000000e+02,5.600000000000000117e-02,1.150000000000001021e-02
4.350000000000000000e+02,5.399999999999999939e-02,1.033333333333334020e-02
4.400000000000000000e+02,5.299999999999999850e-02,9.833333333333332815e-03
4.450000000000000000e+02,5.199999999999999761e-02,9.666666666666663688e-03
4.500000000000000000e+02,5.099999999999999672e-02,8.999999999999994116e-03
4.550000000000000000e+02,5.000000000000000278e-02,8.500000000000000611e-03
4.600000000000000000e+02,4.900000000000000189e-02,8.000000000000000167e-03
4.650000000000000000e+02,4.900000000000000189e-02,8.666666666666662799e-03
4.700000000000000000e+02,4.800000000000000100e-02,8.000000000000000167e-03
4.750000000000000000e+02,4.800000000000000100e-02,8.333333333333331483e-03
4.800000000000000000e+02,4.800000000000000100e-02,8.666666666666662799e-03
4.850000000000000000e+02,4.700000000000000011e-02,7.833333333333331039e-03
4.900000000000000000e+02,4.700000000000000011e-02,8.166666666666662355e-03
4.950000000000000000e+02,4.700000000000000011e-02,8.333333333333331483e-03
5.000000000000000000e+02,4.700000000000000011e-02,8.333333333333331483e-03
5.050000000000000000e+02,4.700000000000000011e-02,8.666666666666662799e-03
5.100000000000000000e+02,4.700000000000000011e-02,8.666666666666662799e-03
5.150000000000000000e+02,4.700000000000000011e-02,8.500000000000000611e-03
5.200000000000000000e+02,4.700000000000000011e-02,8.500000000000000611e-03
5.250000000000000000e+02,4.700000000000000011e-02,8.666666666666662799e-03
5.300000000000000000e+02,4.700000000000000011e-02,8.500000000000000611e-03
5.350000000000000000e+02,4.700000000000000011e-02,8.333333333333331483e-03
5.400000000000000000e+02,4.700000000000000011e-02,8.166666666666662355e-03
5.450000000000000000e+02,4.700000000000000011e-02,8.166666666666662355e-03
5.500000000000000000e+02,4.700000000000000011e-02,8.166666666666662355e-03
5.550000000000000000e+02,4.700000000000000011e-02,8.000000000000000167e-03
5.600000000000000000e+02,4.700000000000000011e-02,8.166666666666662355e-03
5.650000000000000000e+02,4.700000000000000011e-02,7.833333333333331039e-03
5.700000000000000000e+02,4.700000000000000011e-02,7.833333333333331039e-03
5.750000000000000000e+02,4.700000000000000011e-02,7.833333333333331039e-03
5.800000000000000000e+02,4.700000000000000011e-02,7.833333333333331039e-03
5.850000000000000000e+02,4.700000000000000011e-02,7.833333333333331039e-03
5.900000000000000000e+02,4.700000000000000011e-02,7.333333333333330595e-03
5.950000000000000000e+02,4.700000000000000011e-02,7.499999999999999722e-03
6.000000000000000000e+02,4.700000000000000011e-02,7.166666666666661467e-03
6.050000000000000000e+02,4.700000000000000011e-02,7.166666666666661467e-03
6.100000000000000000e+02,4.700000000000000011e-02,7.166666666666661467e-03
6.150000000000000000e+02,4.599999999999999922e-02,6.499999999999998834e-03
6.200000000000000000e+02,4.599999999999999922e-02,6.666666666666661023e-03
6.250000000000000000e+02,4.599999999999999922e-02,6.666666666666661023e-03
6.300000000000000000e+02,4.599999999999999922e-02,6.833333333333330151e-03
6.350000000000000000e+02,4.499999999999999833e-02,5.833333333333329263e-03
6.400000000000000000e+02,4.499999999999999833e-02,6.166666666666660579e-03
6.450000000000000000e+02,4.499999999999999833e-02,6.166666666666660579e-03
6.500000000000000000e+02,4.499999999999999833e-02,6.333333333333329707e-03
6.550000000000000000e+02,4.499999999999999833e-02,6.333333333333329707e-03
6.600000000000000000e+02,4.499999999999999833e-02,6.166666666666660579e-03
6.650000000000000000e+02,4.499999999999999833e-02,6.333333333333329707e-03
6.700000000000000000e+02,4.399999999999999745e-02,5.499999999999997946e-03
6.750000000000000000e+02,4.399999999999999745e-02,5.499999999999997946e-03
6.800000000000000000e+02,4.399999999999999745e-02,5.666666666666660135e-03
6.850000000000000000e+02,4.399999999999999745e-02,5.666666666666660135e-03
6.900000000000000000e+02,4.399999999999999745e-02,5.833333333333329263e-03
6.950000000000000000e+02,4.399999999999999745e-02,5.666666666666660135e-03
7.000000000000000000e+02,4.399999999999999745e-02,5.499999999999997946e-03
7.050000000000000000e+02,4.499999999999999833e-02,5.666666666666660135e-03
7.100000000000000000e+02,4.599999999999999922e-02,5.333333333333335757e-03
7.150000000000000000e+02,4.700000000000000011e-02,5.333333333333335757e-03
7.200000000000000000e+02,4.700000000000000011e-02,5.166666666666666630e-03
7.250000000000000000e+02,4.800000000000000100e-02,5.333333333333335757e-03
7.300000000000000000e+02,5.000000000000000278e-02,5.500000000000011824e-03
7.350000000000000000e+02,5.099999999999999672e-02,4.500000000000003997e-03
7.400000000000000000e+02,5.199999999999999761e-02,5.000000000000004441e-03
7.450000000000000000e+02,5.199999999999999761e-02,4.833333333333335313e-03
7.500000000000000000e+02,5.199999999999999761e-02,4.833333333333335313e-03
7.550000000000000000e+02,5.299999999999999850e-02,5.833333333333336201e-03
7.600000000000000000e+02,5.199999999999999761e-02,4.833333333333335313e-03
7.650000000000000000e+02,5.199999999999999761e-02,5.166666666666666630e-03
7.700000000000000000e+02,5.199999999999999761e-02,5.500000000000004885e-03
7.750000000000000000e+02,5.199999999999999761e-02,5.833333333333336201e-03
7.800000000000000000e+02,5.099999999999999672e-02,5.500000000000004885e-03
7.850000000000000000e+02,5.099999999999999672e-02,5.833333333333336201e-03
7.900000000000000000e+02,5.099999999999999672e-02,6.666666666666667962e-03
7.950000000000000000e+02,5.000000000000000278e-02,6.000000000000012268e-03
8.000000000000000000e+02,5.000000000000000278e-02,6.833333333333337090e-03
8.050000000000000000e+02,5.000000000000000278e-02,6.833333333333337090e-03
8.100000000000000000e+02,4.900000000000000189e-02,5.999999999999998390e-03
8.150000000000000000e+02,5.000000000000000278e-02,6.833333333333337090e-03
8.200000000000000000e+02,5.099999999999999672e-02,7.166666666666668406e-03
8.250000000000000000e+02,5.099999999999999672e-02,6.333333333333336645e-03
8.300000000000000000e+02,5.299999999999999850e-02,6.000000000000005329e-03
8.350000000000000000e+02,5.600000000000000117e-02,6.666666666666667962e-03
8.400000000000000000e+02,5.600000000000000117e-02,6.166666666666667518e-03
8.450000000000000000e+02,5.700000000000000205e-02,6.333333333333336645e-03
8.500000000000000000e+02,5.800000000000000294e-02,6.500000000000005773e-03
8.550000000000000000e+02,5.899999999999999689e-02,6.999999999999999278e-03
8.600000000000000000e+02,5.999999999999999778e-02,6.499999999999998834e-03
8.650000000000000000e+02,6.199999999999999956e-02,6.499999999999998834e-03
8.700000000000000000e+02,6.500000000000000222e-02,6.500000000000005773e-03
8.750000000000000000e+02,6.800000000000000488e-02,6.833333333333337090e-03
8.800000000000000000e+02,6.700000000000000400e-02,6.666666666666674901e-03
8.850000000000000000e+02,6.600000000000000311e-02,6.500000000000005773e-03
8.900000000000000000e+02,6.600000000000000311e-02,6.833333333333337090e-03
8.950000000000000000e+02,6.700000000000000400e-02,7.000000000000006217e-03
9.000000000000000000e+02,6.800000000000000488e-02,6.833333333333337090e-03
9.050000000000000000e+02,6.900000000000000577e-02,6.333333333333343584e-03
9.100000000000000000e+02,7.099999999999999367e-02,5.833333333333329263e-03
9.150000000000000000e+02,7.499999999999999722e-02,6.833333333333330151e-03
9.200000000000000000e+02,7.799999999999999989e-02,6.166666666666667518e-03
9.250000000000000000e+02,8.500000000000000611e-02,6.000000000000005329e-03
9.300000000000000000e+02,9.400000000000000022e-02,5.666666666666680952e-03
9.350000000000000000e+02,1.049999999999999961e-01,4.000000000000003553e-03
9.400000000000000000e+02,1.170000000000000068e-01,3.166666666666664853e-03
9.450000000000000000e+02,1.360000000000000098e-01,2.833333333333326598e-03
9.500000000000000000e+02,1.610000000000000042e-01,1.166666666666649199e-03
9.550000000000000000e+02,1.910000000000000031e-01,-1.166666666666676955e-03
9.600000000000000000e+02,2.159999999999999976e-01,-3.166666666666650976e-03
9.650000000000000000e+02,2.270000000000000073e-01,-3.000000000000002665e-03
9.700000000000000000e+02,2.320000000000000118e-01,-2.999999999999974909e-03
9.750000000000000000e+02,2.340000000000000135e-01,-3.666666666666651420e-03
9.800000000000000000e+02,2.340000000000000135e-01,-2.999999999999947153e-03
9.850000000000000000e+02,2.300000000000000100e-01,-2.833333333333326598e-03
9.900000000000000000e+02,2.220000000000000029e-01,-2.166666666666705598e-03
9.950000000000000000e+02,2.179999999999999993e-01,-1.833333333333325710e-03
