wavelength,absorbance,subtracted_absorbance
3.000000000000000000e+02,1.252000000000000002e+00,5.951666666666665106e-01
3.050000000000000000e+02,1.104999999999999982e+00,5.911666666666667291e-01
3.100000000000000000e+02,1.028999999999999915e+00,5.766666666666666607e-01
3.150000000000000000e+02,9.749999999999999778e-01,5.613333333333333508e-01
3.200000000000000000e+02,9.200000000000000400e-01,5.446666666666667433e-01
3.250000000000000000e+02,8.719999999999999973e-01,5.285000000000000808e-01
3.300000000000000000e+02,8.299999999999999600e-01,5.136666666666666048e-01
3.350000000000000000e+02,7.890000000000000346e-01,5.008333333333334636e-01
3.400000000000000000e+02,7.530000000000000027e-01,4.878333333333332855e-01
3.450000000000000000e+02,7.259999999999999787e-01,4.769999999999999796e-01
3.500000000000000000e+02,7.059999999999999609e-01,4.678333333333333233e-01
3.550000000000000000e+02,6.879999999999999449e-01,4.599999999999999645e-01
3.600000000000000000e+02,6.680000000000000382e-01,4.546666666666666634e-01
3.650000000000000000e+02,6.400000000000000133e-01,4.506666666666666599e-01
3.700000000000000000e+02,5.869999999999999662e-01,4.498333333333333073e-01
3.750000000000000000e+02,5.370000000000000329e-01,4.490000000000000657e-01
3.800000000000000000e+02,5.150000000000000133e-01,4.461666666666666559e-01
3.850000000000000000e+02,5.010000000000000009e-01,4.411666666666666514e-01
3.900000000000000000e+02,4.909999999999999920e-01,4.354999999999999982e-01
3.950000000000000000e+02,4.829999999999999849e-01,4.301666666666666416e-01
4.000000000000000000e+02,4.749999999999999778e-01,4.241666666666666363e-01
4.050000000000000000e+02,4.680000000000000271e-01,4.188333333333333908e-01
4.100000000000000000e+02,4.610000000000000209e-01,4.128333333333333854e-01
4.150000000000000000e+02,4.550000000000000155e-01,4.078333333333333810e-01
4.200000000000000000e+02,4.480000000000000093e-01,4.020000000000000240e-01
4.250000000000000000e+02,4.430000000000000049e-01,3.975000000000000200e-01
4.300000000000000000e+02,4.369999999999999996e-01,3.925000000000000155e-01
4.350000000000000000e+02,4.309999999999999942e-01,3.873333333333333073e-01
4.400000000000000000e+02,4.259999999999999898e-01,3.828333333333333033e-01
4.450000000000000000e+02,4.209999999999999853e-01,3.786666666666666514e-01
4.500000000000000000e+02,4.159999999999999809e-01,3.739999999999999991e-01
4.550000000000000000e+02,4.109999999999999765e-01,3.694999999999999951e-01
4.600000000000000000e+02,4.069999999999999729e-01,3.659999999999999920e-01
4.650000000000000000e+02,4.030000000000000249e-01,3.626666666666666927e-01
4.700000000000000000e+02,3.990000000000000213e-01,3.590000000000000413e-01
4.750000000000000000e+02,3.970000000000000195e-01,3.573333333333333361e-01
4.800000000000000000e+02,3.960000000000000187e-01,3.566666666666666874e-01
4.850000000000000000e+02,3.970000000000000195e-01,3.578333333333333366e-01
4.900000000000000000e+02,4.010000000000000231e-01,3.621666666666666923e-01
4.950000000000000000e+02,4.069999999999999729e-01,3.683333333333332904e-01
5.000000000000000000e+02,4.169999999999999818e-01,3.783333333333332993e-01
5.050000000000000000e+02,4.289999999999999925e-01,3.906666666666666621e-01
5.100000000000000000e+02,4.430000000000000049e-01,4.046666666666666745e-01
5.150000000000000000e+02,4.580000000000000182e-01,4.195000000000000395e-01
5.200000000000000000e+02,4.719999999999999751e-01,4.334999999999999964e-01
5.250000000000000000e+02,4.859999999999999876e-01,4.476666666666666572e-01
5.300000000000000000e+02,4.979999999999999982e-01,4.595000000000000195e-01
5.350000000000000000e+02,5.080000000000000071e-01,4.693333333333333246e-01
5.400000000000000000e+02,5.180000000000000160e-01,4.791666666666666852e-01
5.450000000000000000e+02,5.240000000000000213e-01,4.851666666666666905e-01
5.500000000000000000e+02,5.300000000000000266e-01,4.911666666666666958e-01
5.550000000000000000e+02,5.340000000000000302e-01,4.950000000000000511e-01
5.600000000000000000e+02,5.360000000000000320e-01,4.971666666666667012e-01
5.650000000000000000e+02,5.370000000000000329e-01,4.978333333333333499e-01
5.700000000000000000e+02,5.360000000000000320e-01,4.968333333333333490e-01
5.750000000000000000e+02,5.340000000000000302e-01,4.948333333333333472e-01
5.800000000000000000e+02,5.320000000000000284e-01,4.928333333333333455e-01
5.850000000000000000e+02,5.290000000000000258e-01,4.898333333333333428e-01
5.900000000000000000e+02,5.250000000000000222e-01,4.853333333333333388e-01
5.950000000000000000e+02,5.210000000000000187e-01,4.815000000000000391e-01
6.000000000000000000e+02,5.170000000000000151e-01,4.771666666666666834e-01
6.050000000000000000e+02,5.130000000000000115e-01,4.731666666666666798e-01
6.100000000000000000e+02,5.080000000000000071e-01,4.681666666666666754e-01
6.150000000000000000e+02,5.040000000000000036e-01,4.645000000000000240e-01
6.200000000000000000e+02,5.000000000000000000e-01,4.606666666666666687e-01
6.250000000000000000e+02,4.969999999999999973e-01,4.576666666666666661e-01
6.300000000000000000e+02,4.939999999999999947e-01,4.548333333333333117e-01
6.350000000000000000e+02,4.919999999999999929e-01,4.528333333333333099e-01
6.400000000000000000e+02,4.909999999999999920e-01,4.521666666666666612e-01
6.450000000000000000e+02,4.899999999999999911e-01,4.511666666666666603e-01
6.500000000000000000e+02,4.889999999999999902e-01,4.503333333333333077e-01
6.550000000000000000e+02,4.889999999999999902e-01,4.503333333333333077e-01
6.600000000000000000e+02,4.899999999999999911e-01,4.511666666666666603e-01
6.650000000000000000e+02,4.909999999999999920e-01,4.523333333333333095e-01
6.700000000000000000e+02,4.919999999999999929e-01,4.535000000000000142e-01
6.750000000000000000e+02,4.939999999999999947e-01,4.555000000000000160e-01
6.800000000000000000e+02,4.959999999999999964e-01,4.576666666666666661e-01
6.850000000000000000e+02,4.989999999999999991e-01,4.606666666666666687e-01
6.900000000000000000e+02,5.020000000000000018e-01,4.638333333333333197e-01
6.950000000000000000e+02,5.050000000000000044e-01,4.666666666666666741e-01
7.000000000000000000e+02,5.090000000000000080e-01,4.705000000000000293e-01
7.050000000000000000e+02,5.120000000000000107e-01,4.726666666666666794e-01
7.100000000000000000e+02,5.160000000000000142e-01,4.753333333333333299e-01
7.150000000000000000e+02,5.210000000000000187e-01,4.793333333333333335e-01
7.200000000000000000e+02,5.250000000000000222e-01,4.831666666666666887e-01
7.250000000000000000e+02,5.300000000000000266e-01,4.873333333333333406e-01
7.300000000000000000e+02,5.350000000000000311e-01,4.905000000000000471e-01
7.350000000000000000e+02,5.400000000000000355e-01,4.935000000000000497e-01
7.400000000000000000e+02,5.440000000000000391e-01,4.970000000000000528e-01
7.450000000000000000e+02,5.470000000000000417e-01,4.998333333333333517e-01
7.500000000000000000e+02,5.500000000000000444e-01,5.028333333333333544e-01
7.550000000000000000e+02,5.520000000000000462e-01,5.048333333333333561e-01
7.600000000000000000e+02,5.550000000000000488e-01,5.078333333333333588e-01
7.650000000000000000e+02,5.570000000000000506e-01,5.101666666666667682e-01
7.700000000000000000e+02,5.590000000000000524e-01,5.125000000000000666e-01
7.750000000000000000e+02,5.600000000000000533e-01,5.138333333333333641e-01
7.800000000000000000e+02,5.610000000000000542e-01,5.155000000000000693e-01
7.850000000000000000e+02,5.629999999999999449e-01,5.178333333333332567e-01
7.900000000000000000e+02,5.629999999999999449e-01,5.186666666666666092e-01
7.950000000000000000e+02,5.639999999999999458e-01,5.199999999999999067e-01
8.000000000000000000e+02,5.639999999999999458e-01,5.208333333333332593e-01
8.050000000000000000e+02,5.639999999999999458e-01,5.208333333333332593e-01
8.100000000000000000e+02,5.649999999999999467e-01,5.219999999999999085e-01
8.150000000000000000e+02,5.649999999999999467e-01,5.218333333333332602e-01
8.200000000000000000e+02,5.649999999999999467e-01,5.211666666666666670e-01
8.250000000000000000e+02,5.679999999999999494e-01,5.233333333333333171e-01
8.300000000000000000e+02,5.699999999999999512e-01,5.229999999999999094e-01
8.350000000000000000e+02,5.699999999999999512e-01,5.206666666666666110e-01
8.400000000000000000e+02,5.699999999999999512e-01,5.201666666666666661e-01
8.450000000000000000e+02,5.699999999999999512e-01,5.193333333333333135e-01
8.500000000000000000e+02,5.699999999999999512e-01,5.184999999999999609e-01
8.550000000000000000e+02,5.689999999999999503e-01,5.169999999999999041e-01
8.600000000000000000e+02,5.689999999999999503e-01,5.154999999999999583e-01
8.650000000000000000e+02,5.689999999999999503e-01,5.134999999999999565e-01
8.700000000000000000e+02,5.699999999999999512e-01,5.114999999999999547e-01
8.750000000000000000e+02,5.719999999999999529e-01,5.108333333333332504e-01
8.800000000000000000e+02,5.669999999999999485e-01,5.066666666666665986e-01
8.850000000000000000e+02,5.679999999999999494e-01,5.084999999999999520e-01
8.900000000000000000e+02,5.639999999999999458e-01,5.048333333333332451e-01
8.950000000000000000e+02,5.629999999999999449e-01,5.029999999999998916e-01
9.000000000000000000e+02,5.610000000000000542e-01,4.998333333333334072e-01
9.050000000000000000e+02,5.610000000000000542e-01,4.983333333333334059e-01
9.100000000000000000e+02,5.590000000000000524e-01,4.938333333333334019e-01
9.150000000000000000e+02,5.590000000000000524e-01,4.908333333333333992e-01
9.200000000000000000e+02,5.629999999999999449e-01,4.911666666666666403e-01
9.250000000000000000e+02,5.659999999999999476e-01,4.869999999999999329e-01
9.300000000000000000e+02,5.719999999999999529e-01,4.836666666666666337e-01
9.350000000000000000e+02,5.799999999999999600e-01,4.789999999999999813e-01
9.400000000000000000e+02,5.909999999999999698e-01,4.771666666666666279e-01
9.450000000000000000e+02,6.069999999999999840e-01,4.738333333333333286e-01
9.500000000000000000e+02,6.290000000000000036e-01,4.691666666666666208e-01
9.550000000000000000e+02,6.590000000000000302e-01,4.668333333333333224e-01
9.600000000000000000e+02,6.800000000000000488e-01,4.608333333333334281e-01
9.650000000000000000e+02,6.870000000000000551e-01,4.570000000000000728e-01
9.700000000000000000e+02,6.889999999999999458e-01,4.539999999999999591e-01
9.750000000000000000e+02,6.870000000000000551e-01,4.493333333333333623e-01
9.800000000000000000e+02,6.860000000000000542e-01,4.490000000000000657e-01
9.850000000000000000e+02,6.770000000000000462e-01,4.441666666666667096e-01
9.900000000000000000e+02,6.630000000000000338e-01,4.388333333333332975e-01
9.950000000000000000e+02,6.610000000000000320e-01,4.411666666666667069e-01
