wavelength,absorbance,subtracted_absorbance
3.000000000000000000e+02,8.229999999999999538e-01,1.661666666666664627e-01
3.050000000000000000e+02,6.710000000000000409e-01,1.571666666666667878e-01
3.100000000000000000e+02,5.939999999999999725e-01,1.416666666666666630e-01
3.150000000000000000e+02,5.440000000000000391e-01,1.303333333333334121e-01
3.200000000000000000e+02,4.939999999999999947e-01,1.186666666666666980e-01
3.250000000000000000e+02,4.540000000000000147e-01,1.105000000000000981e-01
3.300000000000000000e+02,4.199999999999999845e-01,1.036666666666666292e-01
3.350000000000000000e+02,3.860000000000000098e-01,9.783333333333338322e-02
3.400000000000000000e+02,3.569999999999999840e-01,9.183333333333326687e-02
3.450000000000000000e+02,3.360000000000000209e-01,8.700000000000004952e-02
3.500000000000000000e+02,3.210000000000000075e-01,8.283333333333336990e-02
3.550000000000000000e+02,3.069999999999999951e-01,7.900000000000001465e-02
3.600000000000000000e+02,2.889999999999999791e-01,7.566666666666663210e-02
3.650000000000000000e+02,2.610000000000000098e-01,7.166666666666668406e-02
3.700000000000000000e+02,1.980000000000000093e-01,6.083333333333332260e-02
3.750000000000000000e+02,1.409999999999999865e-01,5.300000000000000544e-02
3.800000000000000000e+02,1.179999999999999938e-01,4.916666666666665020e-02
3.850000000000000000e+02,1.069999999999999979e-01,4.716666666666666924e-02
3.900000000000000000e+02,1.010000000000000064e-01,4.550000000000000572e-02
3.950000000000000000e+02,9.700000000000000289e-02,4.416666666666666657e-02
4.000000000000000000e+02,9.299999999999999933e-02,4.216666666666666480e-02
4.050000000000000000e+02,8.999999999999999667e-02,4.083333333333333259e-02
4.100000000000000000e+02,8.799999999999999489e-02,3.983333333333333171e-02
4.150000000000000000e+02,8.599999999999999312e-02,3.883333333333333082e-02
4.200000000000000000e+02,8.400000000000000522e-02,3.800000000000001293e-02
4.250000000000000000e+02,8.300000000000000433e-02,3.750000000000001249e-02
4.300000000000000000e+02,8.100000000000000255e-02,3.650000000000001160e-02
4.350000000000000000e+02,8.000000000000000167e-02,3.633333333333334247e-02
4.400000000000000000e+02,7.799999999999999989e-02,3.483333333333333420e-02
4.450000000000000000e+02,7.699999999999999900e-02,3.466666666666666508e-02
4.500000000000000000e+02,7.599999999999999811e-02,3.399999999999999550e-02
4.550000000000000000e+02,7.599999999999999811e-02,3.449999999999999595e-02
4.600000000000000000e+02,7.499999999999999722e-02,3.399999999999999550e-02
4.650000000000000000e+02,7.499999999999999722e-02,3.466666666666665814e-02
4.700000000000000000e+02,7.399999999999999634e-02,3.399999999999999550e-02
4.750000000000000000e+02,7.399999999999999634e-02,3.433333333333332682e-02
4.800000000000000000e+02,7.399999999999999634e-02,3.466666666666665814e-02
4.850000000000000000e+02,7.399999999999999634e-02,3.483333333333332726e-02
4.900000000000000000e+02,7.499999999999999722e-02,3.616666666666665947e-02
4.950000000000000000e+02,7.499999999999999722e-02,3.633333333333332860e-02
5.000000000000000000e+02,7.599999999999999811e-02,3.733333333333332948e-02
5.050000000000000000e+02,7.799999999999999989e-02,3.966666666666666258e-02
5.100000000000000000e+02,7.900000000000000078e-02,4.066666666666666347e-02
5.150000000000000000e+02,8.000000000000000167e-02,4.150000000000000216e-02
5.200000000000000000e+02,8.100000000000000255e-02,4.250000000000000305e-02
5.250000000000000000e+02,8.100000000000000255e-02,4.266666666666666524e-02
5.300000000000000000e+02,8.200000000000000344e-02,4.350000000000000394e-02
5.350000000000000000e+02,8.200000000000000344e-02,4.333333333333333481e-02
5.400000000000000000e+02,8.300000000000000433e-02,4.416666666666666657e-02
5.450000000000000000e+02,8.300000000000000433e-02,4.416666666666666657e-02
5.500000000000000000e+02,8.300000000000000433e-02,4.416666666666666657e-02
5.550000000000000000e+02,8.400000000000000522e-02,4.500000000000000527e-02
5.600000000000000000e+02,8.400000000000000522e-02,4.516666666666666746e-02
5.650000000000000000e+02,8.400000000000000522e-02,4.483333333333333615e-02
5.700000000000000000e+02,8.400000000000000522e-02,4.483333333333333615e-02
5.750000000000000000e+02,8.400000000000000522e-02,4.483333333333333615e-02
5.800000000000000000e+02,8.300000000000000433e-02,4.383333333333333526e-02
5.850000000000000000e+02,8.400000000000000522e-02,4.483333333333333615e-02
5.900000000000000000e+02,8.400000000000000522e-02,4.433333333333333570e-02
5.950000000000000000e+02,8.400000000000000522e-02,4.450000000000000483e-02
6.000000000000000000e+02,8.400000000000000522e-02,4.416666666666666657e-02
6.050000000000000000e+02,8.400000000000000522e-02,4.416666666666666657e-02
6.100000000000000000e+02,8.300000000000000433e-02,4.316666666666666569e-02
6.150000000000000000e+02,8.300000000000000433e-02,4.350000000000000394e-02
6.200000000000000000e+02,8.300000000000000433e-02,4.366666666666666613e-02
6.250000000000000000e+02,8.200000000000000344e-02,4.266666666666666524e-02
6.300000000000000000e+02,8.200000000000000344e-02,4.283333333333333437e-02
6.350000000000000000e+02,8.200000000000000344e-02,4.283333333333333437e-02
6.400000000000000000e+02,8.100000000000000255e-02,4.216666666666666480e-02
6.450000000000000000e+02,8.100000000000000255e-02,4.216666666666666480e-02
6.500000000000000000e+02,8.000000000000000167e-02,4.133333333333333304e-02
6.550000000000000000e+02,8.000000000000000167e-02,4.133333333333333304e-02
6.600000000000000000e+02,8.000000000000000167e-02,4.116666666666666391e-02
6.650000000000000000e+02,7.900000000000000078e-02,4.033333333333333215e-02
6.700000000000000000e+02,7.799999999999999989e-02,3.950000000000000039e-02
6.750000000000000000e+02,7.799999999999999989e-02,3.950000000000000039e-02
6.800000000000000000e+02,7.699999999999999900e-02,3.866666666666666169e-02
6.850000000000000000e+02,7.699999999999999900e-02,3.866666666666666169e-02
6.900000000000000000e+02,7.599999999999999811e-02,3.783333333333332993e-02
6.950000000000000000e+02,7.599999999999999811e-02,3.766666666666666080e-02
7.000000000000000000e+02,7.499999999999999722e-02,3.649999999999999772e-02
7.050000000000000000e+02,7.599999999999999811e-02,3.666666666666665991e-02
7.100000000000000000e+02,7.699999999999999900e-02,3.633333333333333554e-02
7.150000000000000000e+02,7.699999999999999900e-02,3.533333333333333465e-02
7.200000000000000000e+02,7.699999999999999900e-02,3.516666666666666552e-02
7.250000000000000000e+02,7.699999999999999900e-02,3.433333333333333376e-02
7.300000000000000000e+02,7.799999999999999989e-02,3.350000000000000894e-02
7.350000000000000000e+02,8.000000000000000167e-02,3.350000000000000894e-02
7.400000000000000000e+02,8.000000000000000167e-02,3.300000000000000849e-02
7.450000000000000000e+02,7.900000000000000078e-02,3.183333333333333848e-02
7.500000000000000000e+02,7.900000000000000078e-02,3.183333333333333848e-02
7.550000000000000000e+02,7.799999999999999989e-02,3.083333333333333759e-02
7.600000000000000000e+02,7.799999999999999989e-02,3.083333333333333759e-02
7.650000000000000000e+02,7.699999999999999900e-02,3.016666666666666802e-02
7.700000000000000000e+02,7.599999999999999811e-02,2.950000000000000538e-02
7.750000000000000000e+02,7.499999999999999722e-02,2.883333333333333581e-02
7.800000000000000000e+02,7.499999999999999722e-02,2.950000000000000538e-02
7.850000000000000000e+02,7.399999999999999634e-02,2.883333333333333581e-02
7.900000000000000000e+02,7.299999999999999545e-02,2.866666666666666669e-02
7.950000000000000000e+02,7.199999999999999456e-02,2.800000000000000405e-02
8.000000000000000000e+02,7.099999999999999367e-02,2.783333333333332799e-02
8.050000000000000000e+02,7.000000000000000666e-02,2.683333333333334098e-02
8.100000000000000000e+02,7.000000000000000666e-02,2.700000000000000316e-02
8.150000000000000000e+02,7.000000000000000666e-02,2.683333333333334098e-02
8.200000000000000000e+02,7.000000000000000666e-02,2.616666666666667834e-02
8.250000000000000000e+02,7.099999999999999367e-02,2.633333333333333359e-02
8.300000000000000000e+02,7.299999999999999545e-02,2.600000000000000228e-02
8.350000000000000000e+02,7.499999999999999722e-02,2.566666666666666402e-02
8.400000000000000000e+02,7.499999999999999722e-02,2.516666666666666358e-02
8.450000000000000000e+02,7.599999999999999811e-02,2.533333333333333270e-02
8.500000000000000000e+02,7.599999999999999811e-02,2.450000000000000094e-02
8.550000000000000000e+02,7.699999999999999900e-02,2.500000000000000139e-02
8.600000000000000000e+02,7.799999999999999989e-02,2.450000000000000094e-02
8.650000000000000000e+02,8.000000000000000167e-02,2.450000000000000094e-02
8.700000000000000000e+02,8.200000000000000344e-02,2.350000000000000699e-02
8.750000000000000000e+02,8.500000000000000611e-02,2.383333333333333831e-02
8.800000000000000000e+02,8.400000000000000522e-02,2.366666666666667612e-02
8.850000000000000000e+02,8.400000000000000522e-02,2.450000000000000788e-02
8.900000000000000000e+02,8.300000000000000433e-02,2.383333333333333831e-02
8.950000000000000000e+02,8.400000000000000522e-02,2.400000000000000744e-02
9.000000000000000000e+02,8.500000000000000611e-02,2.383333333333333831e-02
9.050000000000000000e+02,8.599999999999999312e-02,2.333333333333333093e-02
9.100000000000000000e+02,8.799999999999999489e-02,2.283333333333333048e-02
9.150000000000000000e+02,9.099999999999999756e-02,2.283333333333333048e-02
9.200000000000000000e+02,9.500000000000000111e-02,2.316666666666666874e-02
9.250000000000000000e+02,1.019999999999999934e-01,2.299999999999999267e-02
9.300000000000000000e+02,1.110000000000000014e-01,2.266666666666668217e-02
9.350000000000000000e+02,1.229999999999999982e-01,2.200000000000000566e-02
9.400000000000000000e+02,1.350000000000000089e-01,2.116666666666666696e-02
9.450000000000000000e+02,1.539999999999999980e-01,2.083333333333331483e-02
9.500000000000000000e+02,1.799999999999999933e-01,2.016666666666663832e-02
9.550000000000000000e+02,2.119999999999999940e-01,1.983333333333331394e-02
9.600000000000000000e+02,2.369999999999999885e-01,1.783333333333333992e-02
9.650000000000000000e+02,2.479999999999999982e-01,1.799999999999998823e-02
9.700000000000000000e+02,2.530000000000000027e-01,1.800000000000001599e-02
9.750000000000000000e+02,2.550000000000000044e-01,1.733333333333333948e-02
9.800000000000000000e+02,2.550000000000000044e-01,1.800000000000004374e-02
9.850000000000000000e+02,2.510000000000000009e-01,1.816666666666666430e-02
9.900000000000000000e+02,2.429999999999999938e-01,1.883333333333328530e-02
9.950000000000000000e+02,2.389999999999999902e-01,1.916666666666666519e-02
