wavelength,absorbance,subtracted_absorbance
3.000000000000000000e+02,1.227999999999999980e+00,5.711666666666664893e-01
3.050000000000000000e+02,1.056000000000000050e+00,5.421666666666667966e-01
3.100000000000000000e+02,9.659999999999999698e-01,5.136666666666667158e-01
3.150000000000000000e+02,9.000000000000000222e-01,4.863333333333333952e-01
3.200000000000000000e+02,8.329999999999999627e-01,4.576666666666666661e-01
3.250000000000000000e+02,7.740000000000000213e-01,4.305000000000001048e-01
3.300000000000000000e+02,7.219999999999999751e-01,4.056666666666666199e-01
3.350000000000000000e+02,6.660000000000000364e-01,3.778333333333334099e-01
3.400000000000000000e+02,6.179999999999999938e-01,3.528333333333332766e-01
3.450000000000000000e+02,5.769999999999999574e-01,3.279999999999999583e-01
3.500000000000000000e+02,5.420000000000000373e-01,3.038333333333333997e-01
3.550000000000000000e+02,5.110000000000000098e-01,2.830000000000000293e-01
3.600000000000000000e+02,4.749999999999999778e-01,2.616666666666666030e-01
3.650000000000000000e+02,4.279999999999999916e-01,2.386666666666666659e-01
3.700000000000000000e+02,3.459999999999999742e-01,2.088333333333332875e-01
3.750000000000000000e+02,2.680000000000000160e-01,1.800000000000000488e-01
3.800000000000000000e+02,2.300000000000000100e-01,1.611666666666666803e-01
3.850000000000000000e+02,2.049999999999999878e-01,1.451666666666666661e-01
3.900000000000000000e+02,1.869999999999999996e-01,1.315000000000000058e-01
3.950000000000000000e+02,1.729999999999999871e-01,1.201666666666666439e-01
4.000000000000000000e+02,1.590000000000000024e-01,1.081666666666666610e-01
4.050000000000000000e+02,1.469999999999999918e-01,9.783333333333332771e-02
4.100000000000000000e+02,1.370000000000000107e-01,8.883333333333334747e-02
4.150000000000000000e+02,1.270000000000000018e-01,7.983333333333333948e-02
4.200000000000000000e+02,1.189999999999999947e-01,7.300000000000000933e-02
4.250000000000000000e+02,1.120000000000000023e-01,6.650000000000000355e-02
4.300000000000000000e+02,1.059999999999999970e-01,6.150000000000000605e-02
4.350000000000000000e+02,1.000000000000000056e-01,5.633333333333334636e-02
4.400000000000000000e+02,9.400000000000000022e-02,5.083333333333333454e-02
4.450000000000000000e+02,8.899999999999999578e-02,4.666666666666666186e-02
4.500000000000000000e+02,8.500000000000000611e-02,4.300000000000000350e-02
4.550000000000000000e+02,8.100000000000000255e-02,3.950000000000000039e-02
4.600000000000000000e+02,7.699999999999999900e-02,3.599999999999999728e-02
4.650000000000000000e+02,7.399999999999999634e-02,3.366666666666665725e-02
4.700000000000000000e+02,7.099999999999999367e-02,3.099999999999999284e-02
4.750000000000000000e+02,6.900000000000000577e-02,2.933333333333333626e-02
4.800000000000000000e+02,6.700000000000000400e-02,2.766666666666666580e-02
4.850000000000000000e+02,6.500000000000000222e-02,2.583333333333333315e-02
4.900000000000000000e+02,6.300000000000000044e-02,2.416666666666666269e-02
4.950000000000000000e+02,6.099999999999999867e-02,2.233333333333333004e-02
5.000000000000000000e+02,5.999999999999999778e-02,2.133333333333332915e-02
5.050000000000000000e+02,5.800000000000000294e-02,1.966666666666666563e-02
5.100000000000000000e+02,5.700000000000000205e-02,1.866666666666666474e-02
5.150000000000000000e+02,5.600000000000000117e-02,1.750000000000000167e-02
5.200000000000000000e+02,5.500000000000000028e-02,1.650000000000000078e-02
5.250000000000000000e+02,5.399999999999999939e-02,1.566666666666666208e-02
5.300000000000000000e+02,5.299999999999999850e-02,1.449999999999999900e-02
5.350000000000000000e+02,5.199999999999999761e-02,1.333333333333332898e-02
5.400000000000000000e+02,5.199999999999999761e-02,1.316666666666665986e-02
5.450000000000000000e+02,5.099999999999999672e-02,1.216666666666665897e-02
5.500000000000000000e+02,5.099999999999999672e-02,1.216666666666665897e-02
5.550000000000000000e+02,5.000000000000000278e-02,1.100000000000000283e-02
5.600000000000000000e+02,4.900000000000000189e-02,1.016666666666666413e-02
5.650000000000000000e+02,4.900000000000000189e-02,9.833333333333332815e-03
5.700000000000000000e+02,4.800000000000000100e-02,8.833333333333331927e-03
5.750000000000000000e+02,4.800000000000000100e-02,8.833333333333331927e-03
5.800000000000000000e+02,4.700000000000000011e-02,7.833333333333331039e-03
5.850000000000000000e+02,4.700000000000000011e-02,7.833333333333331039e-03
5.900000000000000000e+02,4.700000000000000011e-02,7.333333333333330595e-03
5.950000000000000000e+02,4.599999999999999922e-02,6.499999999999998834e-03
6.000000000000000000e+02,4.599999999999999922e-02,6.166666666666660579e-03
6.050000000000000000e+02,4.599999999999999922e-02,6.166666666666660579e-03
6.100000000000000000e+02,4.499999999999999833e-02,5.166666666666659691e-03
6.150000000000000000e+02,4.499999999999999833e-02,5.499999999999997946e-03
6.200000000000000000e+02,4.399999999999999745e-02,4.666666666666659247e-03
6.250000000000000000e+02,4.399999999999999745e-02,4.666666666666659247e-03
6.300000000000000000e+02,4.399999999999999745e-02,4.833333333333328374e-03
6.350000000000000000e+02,4.299999999999999656e-02,3.833333333333327486e-03
6.400000000000000000e+02,4.299999999999999656e-02,4.166666666666658803e-03
6.450000000000000000e+02,4.299999999999999656e-02,4.166666666666658803e-03
6.500000000000000000e+02,4.299999999999999656e-02,4.333333333333327930e-03
6.550000000000000000e+02,4.200000000000000261e-02,3.333333333333333981e-03
6.600000000000000000e+02,4.200000000000000261e-02,3.166666666666664853e-03
6.650000000000000000e+02,4.200000000000000261e-02,3.333333333333333981e-03
6.700000000000000000e+02,4.200000000000000261e-02,3.500000000000003109e-03
6.750000000000000000e+02,4.200000000000000261e-02,3.500000000000003109e-03
6.800000000000000000e+02,4.100000000000000172e-02,2.666666666666664409e-03
6.850000000000000000e+02,4.100000000000000172e-02,2.666666666666664409e-03
6.900000000000000000e+02,4.100000000000000172e-02,2.833333333333333537e-03
6.950000000000000000e+02,4.100000000000000172e-02,2.666666666666664409e-03
7.000000000000000000e+02,4.100000000000000172e-02,2.500000000000002220e-03
7.050000000000000000e+02,4.200000000000000261e-02,2.666666666666664409e-03
7.100000000000000000e+02,4.299999999999999656e-02,2.333333333333333093e-03
7.150000000000000000e+02,4.399999999999999745e-02,2.333333333333333093e-03
7.200000000000000000e+02,4.399999999999999745e-02,2.166666666666663965e-03
7.250000000000000000e+02,4.499999999999999833e-02,2.333333333333333093e-03
7.300000000000000000e+02,4.700000000000000011e-02,2.500000000000009159e-03
7.350000000000000000e+02,4.900000000000000189e-02,2.500000000000009159e-03
7.400000000000000000e+02,4.900000000000000189e-02,2.000000000000008715e-03
7.450000000000000000e+02,4.900000000000000189e-02,1.833333333333339588e-03
7.500000000000000000e+02,4.900000000000000189e-02,1.833333333333339588e-03
7.550000000000000000e+02,5.000000000000000278e-02,2.833333333333340476e-03
7.600000000000000000e+02,4.900000000000000189e-02,1.833333333333339588e-03
7.650000000000000000e+02,4.900000000000000189e-02,2.166666666666670904e-03
7.700000000000000000e+02,4.900000000000000189e-02,2.500000000000009159e-03
7.750000000000000000e+02,4.800000000000000100e-02,1.833333333333339588e-03
7.800000000000000000e+02,4.800000000000000100e-02,2.500000000000009159e-03
7.850000000000000000e+02,4.700000000000000011e-02,1.833333333333339588e-03
7.900000000000000000e+02,4.700000000000000011e-02,2.666666666666671348e-03
7.950000000000000000e+02,4.599999999999999922e-02,2.000000000000008715e-03
8.000000000000000000e+02,4.599999999999999922e-02,2.833333333333333537e-03
8.050000000000000000e+02,4.599999999999999922e-02,2.833333333333333537e-03
8.100000000000000000e+02,4.499999999999999833e-02,1.999999999999994837e-03
8.150000000000000000e+02,4.499999999999999833e-02,1.833333333333332649e-03
8.200000000000000000e+02,4.599999999999999922e-02,2.166666666666670904e-03
8.250000000000000000e+02,4.700000000000000011e-02,2.333333333333340032e-03
8.300000000000000000e+02,4.900000000000000189e-02,2.000000000000008715e-03
8.350000000000000000e+02,5.099999999999999672e-02,1.666666666666663521e-03
8.400000000000000000e+02,5.199999999999999761e-02,2.166666666666663965e-03
8.450000000000000000e+02,5.299999999999999850e-02,2.333333333333333093e-03
8.500000000000000000e+02,5.299999999999999850e-02,1.500000000000001332e-03
8.550000000000000000e+02,5.399999999999999939e-02,2.000000000000001776e-03
8.600000000000000000e+02,5.600000000000000117e-02,2.500000000000002220e-03
8.650000000000000000e+02,5.700000000000000205e-02,1.500000000000001332e-03
8.700000000000000000e+02,6.099999999999999867e-02,2.500000000000002220e-03
8.750000000000000000e+02,6.400000000000000133e-02,2.833333333333333537e-03
8.800000000000000000e+02,6.300000000000000044e-02,2.666666666666671348e-03
8.850000000000000000e+02,6.099999999999999867e-02,1.500000000000001332e-03
8.900000000000000000e+02,6.099999999999999867e-02,1.833333333333332649e-03
8.950000000000000000e+02,6.199999999999999956e-02,2.000000000000001776e-03
9.000000000000000000e+02,6.300000000000000044e-02,1.833333333333332649e-03
9.050000000000000000e+02,6.400000000000000133e-02,1.333333333333339144e-03
9.100000000000000000e+02,6.600000000000000311e-02,8.333333333333386994e-04
9.150000000000000000e+02,7.000000000000000666e-02,1.833333333333339588e-03
9.200000000000000000e+02,7.299999999999999545e-02,1.166666666666663077e-03
9.250000000000000000e+02,8.000000000000000167e-02,1.000000000000000888e-03
9.300000000000000000e+02,8.899999999999999578e-02,6.666666666666765106e-04
9.350000000000000000e+02,1.000000000000000056e-01,-9.999999999999870104e-04
9.400000000000000000e+02,1.130000000000000032e-01,-8.333333333333386994e-04
9.450000000000000000e+02,1.310000000000000053e-01,-2.166666666666677843e-03
9.500000000000000000e+02,1.559999999999999998e-01,-3.833333333333355242e-03
9.550000000000000000e+02,1.869999999999999996e-01,-5.166666666666680507e-03
9.600000000000000000e+02,2.129999999999999949e-01,-6.166666666666653640e-03
9.650000000000000000e+02,2.230000000000000038e-01,-7.000000000000006217e-03
9.700000000000000000e+02,2.280000000000000082e-01,-6.999999999999978462e-03
9.750000000000000000e+02,2.310000000000000109e-01,-6.666666666666654084e-03
9.800000000000000000e+02,2.300000000000000100e-01,-6.999999999999950706e-03
9.850000000000000000e+02,2.260000000000000064e-01,-6.833333333333330151e-03
9.900000000000000000e+02,2.179999999999999993e-01,-6.166666666666709151e-03
9.950000000000000000e+02,2.139999999999999958e-01,-5.833333333333329263e-03
