wavelength,absorbance,subtracted_absorbance
3.000000000000000000e+02,9.090000000000000302e-01,2.521666666666665391e-01
3.050000000000000000e+02,7.540000000000000036e-01,2.401666666666667505e-01
3.100000000000000000e+02,6.850000000000000533e-01,2.326666666666667438e-01
3.150000000000000000e+02,6.400000000000000133e-01,2.263333333333333863e-01
3.200000000000000000e+02,5.949999999999999734e-01,2.196666666666666767e-01
3.250000000000000000e+02,5.570000000000000506e-01,2.135000000000001341e-01
3.300000000000000000e+02,5.250000000000000222e-01,2.086666666666666670e-01
3.350000000000000000e+02,4.909999999999999920e-01,2.028333333333333655e-01
3.400000000000000000e+02,4.640000000000000235e-01,1.988333333333333064e-01
3.450000000000000000e+02,4.450000000000000067e-01,1.960000000000000353e-01
3.500000000000000000e+02,4.319999999999999951e-01,1.938333333333333575e-01
3.550000000000000000e+02,4.209999999999999853e-01,1.930000000000000049e-01
3.600000000000000000e+02,4.040000000000000258e-01,1.906666666666666787e-01
3.650000000000000000e+02,3.780000000000000027e-01,1.886666666666666770e-01
3.700000000000000000e+02,3.210000000000000075e-01,1.838333333333333208e-01
3.750000000000000000e+02,2.700000000000000178e-01,1.820000000000000506e-01
3.800000000000000000e+02,2.489999999999999991e-01,1.801666666666666416e-01
3.850000000000000000e+02,2.369999999999999885e-01,1.771666666666666667e-01
3.900000000000000000e+02,2.310000000000000109e-01,1.755000000000000171e-01
3.950000000000000000e+02,2.260000000000000064e-01,1.731666666666666632e-01
4.000000000000000000e+02,2.230000000000000038e-01,1.721666666666666623e-01
4.050000000000000000e+02,2.190000000000000002e-01,1.698333333333333361e-01
4.100000000000000000e+02,2.159999999999999976e-01,1.678333333333333344e-01
4.150000000000000000e+02,2.129999999999999949e-01,1.658333333333333326e-01
4.200000000000000000e+02,2.109999999999999931e-01,1.650000000000000078e-01
4.250000000000000000e+02,2.089999999999999913e-01,1.635000000000000064e-01
4.300000000000000000e+02,2.069999999999999896e-01,1.625000000000000056e-01
4.350000000000000000e+02,2.059999999999999887e-01,1.623333333333333295e-01
4.400000000000000000e+02,2.039999999999999869e-01,1.608333333333333282e-01
4.450000000000000000e+02,2.030000000000000138e-01,1.606666666666666798e-01
4.500000000000000000e+02,2.030000000000000138e-01,1.610000000000000042e-01
4.550000000000000000e+02,2.030000000000000138e-01,1.615000000000000047e-01
4.600000000000000000e+02,2.030000000000000138e-01,1.620000000000000051e-01
4.650000000000000000e+02,2.039999999999999869e-01,1.636666666666666548e-01
4.700000000000000000e+02,2.049999999999999878e-01,1.649999999999999800e-01
4.750000000000000000e+02,2.079999999999999905e-01,1.683333333333333348e-01
4.800000000000000000e+02,2.119999999999999940e-01,1.726666666666666627e-01
4.850000000000000000e+02,2.179999999999999993e-01,1.788333333333333441e-01
4.900000000000000000e+02,2.270000000000000073e-01,1.881666666666666765e-01
4.950000000000000000e+02,2.379999999999999893e-01,1.993333333333333068e-01
5.000000000000000000e+02,2.510000000000000009e-01,2.123333333333333184e-01
5.050000000000000000e+02,2.660000000000000142e-01,2.276666666666666838e-01
5.100000000000000000e+02,2.810000000000000275e-01,2.426666666666666972e-01
5.150000000000000000e+02,2.929999999999999827e-01,2.545000000000000040e-01
5.200000000000000000e+02,3.019999999999999907e-01,2.635000000000000120e-01
5.250000000000000000e+02,3.049999999999999933e-01,2.666666666666666630e-01
5.300000000000000000e+02,3.019999999999999907e-01,2.635000000000000120e-01
5.350000000000000000e+02,2.939999999999999836e-01,2.553333333333333011e-01
5.400000000000000000e+02,2.810000000000000275e-01,2.421666666666666967e-01
5.450000000000000000e+02,2.670000000000000151e-01,2.281666666666666843e-01
5.500000000000000000e+02,2.510000000000000009e-01,2.121666666666666701e-01
5.550000000000000000e+02,2.349999999999999867e-01,1.959999999999999798e-01
5.600000000000000000e+02,2.210000000000000020e-01,1.821666666666666712e-01
5.650000000000000000e+02,2.069999999999999896e-01,1.678333333333333344e-01
5.700000000000000000e+02,1.960000000000000075e-01,1.568333333333333246e-01
5.750000000000000000e+02,1.869999999999999996e-01,1.478333333333333166e-01
5.800000000000000000e+02,1.789999999999999925e-01,1.398333333333333095e-01
5.850000000000000000e+02,1.719999999999999862e-01,1.328333333333333033e-01
5.900000000000000000e+02,1.680000000000000104e-01,1.283333333333333548e-01
5.950000000000000000e+02,1.640000000000000069e-01,1.244999999999999996e-01
6.000000000000000000e+02,1.610000000000000042e-01,1.211666666666666725e-01
6.050000000000000000e+02,1.590000000000000024e-01,1.191666666666666707e-01
6.100000000000000000e+02,1.570000000000000007e-01,1.171666666666666690e-01
6.150000000000000000e+02,1.570000000000000007e-01,1.174999999999999933e-01
6.200000000000000000e+02,1.559999999999999998e-01,1.166666666666666685e-01
6.250000000000000000e+02,1.559999999999999998e-01,1.166666666666666685e-01
6.300000000000000000e+02,1.559999999999999998e-01,1.168333333333333307e-01
6.350000000000000000e+02,1.570000000000000007e-01,1.178333333333333316e-01
6.400000000000000000e+02,1.570000000000000007e-01,1.181666666666666698e-01
6.450000000000000000e+02,1.580000000000000016e-01,1.191666666666666707e-01
6.500000000000000000e+02,1.590000000000000024e-01,1.203333333333333338e-01
6.550000000000000000e+02,1.600000000000000033e-01,1.213333333333333347e-01
6.600000000000000000e+02,1.610000000000000042e-01,1.221666666666666734e-01
6.650000000000000000e+02,1.620000000000000051e-01,1.233333333333333365e-01
6.700000000000000000e+02,1.630000000000000060e-01,1.244999999999999996e-01
6.750000000000000000e+02,1.640000000000000069e-01,1.255000000000000004e-01
6.800000000000000000e+02,1.650000000000000078e-01,1.266666666666666774e-01
6.850000000000000000e+02,1.660000000000000087e-01,1.276666666666666783e-01
6.900000000000000000e+02,1.670000000000000095e-01,1.288333333333333552e-01
6.950000000000000000e+02,1.670000000000000095e-01,1.286666666666666792e-01
7.000000000000000000e+02,1.670000000000000095e-01,1.285000000000000031e-01
7.050000000000000000e+02,1.690000000000000113e-01,1.296666666666666801e-01
7.100000000000000000e+02,1.710000000000000131e-01,1.303333333333333566e-01
7.150000000000000000e+02,1.710000000000000131e-01,1.293333333333333557e-01
7.200000000000000000e+02,1.700000000000000122e-01,1.281666666666666787e-01
7.250000000000000000e+02,1.700000000000000122e-01,1.273333333333333539e-01
7.300000000000000000e+02,1.710000000000000131e-01,1.265000000000000291e-01
7.350000000000000000e+02,1.719999999999999862e-01,1.255000000000000004e-01
7.400000000000000000e+02,1.710000000000000131e-01,1.240000000000000269e-01
7.450000000000000000e+02,1.700000000000000122e-01,1.228333333333333499e-01
7.500000000000000000e+02,1.680000000000000104e-01,1.208333333333333481e-01
7.550000000000000000e+02,1.660000000000000087e-01,1.188333333333333464e-01
7.600000000000000000e+02,1.640000000000000069e-01,1.168333333333333446e-01
7.650000000000000000e+02,1.620000000000000051e-01,1.151666666666666672e-01
7.700000000000000000e+02,1.590000000000000024e-01,1.125000000000000167e-01
7.750000000000000000e+02,1.559999999999999998e-01,1.098333333333333384e-01
7.800000000000000000e+02,1.529999999999999971e-01,1.075000000000000122e-01
7.850000000000000000e+02,1.499999999999999944e-01,1.048333333333333339e-01
7.900000000000000000e+02,1.469999999999999918e-01,1.026666666666666561e-01
7.950000000000000000e+02,1.439999999999999891e-01,1.000000000000000056e-01
8.000000000000000000e+02,1.409999999999999865e-01,9.783333333333332771e-02
8.050000000000000000e+02,1.380000000000000115e-01,9.483333333333335280e-02
8.100000000000000000e+02,1.340000000000000080e-01,9.099999999999999756e-02
8.150000000000000000e+02,1.320000000000000062e-01,8.883333333333334747e-02
8.200000000000000000e+02,1.300000000000000044e-01,8.616666666666666918e-02
8.250000000000000000e+02,1.270000000000000018e-01,8.233333333333334170e-02
8.300000000000000000e+02,1.270000000000000018e-01,8.000000000000001554e-02
8.350000000000000000e+02,1.260000000000000009e-01,7.666666666666666075e-02
8.400000000000000000e+02,1.239999999999999991e-01,7.416666666666665853e-02
8.450000000000000000e+02,1.219999999999999973e-01,7.133333333333333193e-02
8.500000000000000000e+02,1.199999999999999956e-01,6.850000000000000533e-02
8.550000000000000000e+02,1.179999999999999938e-01,6.600000000000000311e-02
8.600000000000000000e+02,1.170000000000000068e-01,6.350000000000000089e-02
8.650000000000000000e+02,1.160000000000000059e-01,6.050000000000000516e-02
8.700000000000000000e+02,1.170000000000000068e-01,5.850000000000001033e-02
8.750000000000000000e+02,1.179999999999999938e-01,5.683333333333332599e-02
8.800000000000000000e+02,1.150000000000000050e-01,5.466666666666667590e-02
8.850000000000000000e+02,1.110000000000000014e-01,5.150000000000000411e-02
8.900000000000000000e+02,1.089999999999999997e-01,4.983333333333333365e-02
8.950000000000000000e+02,1.079999999999999988e-01,4.800000000000000100e-02
9.000000000000000000e+02,1.059999999999999970e-01,4.483333333333332921e-02
9.050000000000000000e+02,1.059999999999999970e-01,4.333333333333333481e-02
9.100000000000000000e+02,1.059999999999999970e-01,4.083333333333333259e-02
9.150000000000000000e+02,1.079999999999999988e-01,3.983333333333333171e-02
9.200000000000000000e+02,1.100000000000000006e-01,3.816666666666666818e-02
9.250000000000000000e+02,1.150000000000000050e-01,3.600000000000000422e-02
9.300000000000000000e+02,1.229999999999999982e-01,3.466666666666667895e-02
9.350000000000000000e+02,1.330000000000000071e-01,3.200000000000001454e-02
9.400000000000000000e+02,1.439999999999999891e-01,3.016666666666664720e-02
9.450000000000000000e+02,1.620000000000000051e-01,2.883333333333332194e-02
9.500000000000000000e+02,1.859999999999999987e-01,2.616666666666664365e-02
9.550000000000000000e+02,2.149999999999999967e-01,2.283333333333331661e-02
9.600000000000000000e+02,2.399999999999999911e-01,2.083333333333334259e-02
9.650000000000000000e+02,2.489999999999999991e-01,1.899999999999998912e-02
9.700000000000000000e+02,2.530000000000000027e-01,1.800000000000001599e-02
9.750000000000000000e+02,2.540000000000000036e-01,1.633333333333333859e-02
9.800000000000000000e+02,2.530000000000000027e-01,1.600000000000004197e-02
9.850000000000000000e+02,2.479999999999999982e-01,1.516666666666666163e-02
9.900000000000000000e+02,2.389999999999999902e-01,1.483333333333328174e-02
9.950000000000000000e+02,2.340000000000000135e-01,1.416666666666668850e-02
