wavelength,absorbance,subtracted_absorbance
3.000000000000000000e+02,8.179999999999999494e-01,1.611666666666664582e-01
3.050000000000000000e+02,6.710000000000000409e-01,1.571666666666667878e-01
3.100000000000000000e+02,6.049999999999999822e-01,1.526666666666666727e-01
3.150000000000000000e+02,5.600000000000000533e-01,1.463333333333334263e-01
3.200000000000000000e+02,5.160000000000000142e-01,1.406666666666667176e-01
3.250000000000000000e+02,4.779999999999999805e-01,1.345000000000000639e-01
3.300000000000000000e+02,4.470000000000000084e-01,1.306666666666666532e-01
3.350000000000000000e+02,4.119999999999999774e-01,1.238333333333333508e-01
3.400000000000000000e+02,3.840000000000000080e-01,1.188333333333332908e-01
3.450000000000000000e+02,3.629999999999999893e-01,1.140000000000000180e-01
3.500000000000000000e+02,3.479999999999999760e-01,1.098333333333333384e-01
3.550000000000000000e+02,3.340000000000000191e-01,1.060000000000000386e-01
3.600000000000000000e+02,3.150000000000000022e-01,1.016666666666666552e-01
3.650000000000000000e+02,2.849999999999999756e-01,9.566666666666664987e-02
3.700000000000000000e+02,2.250000000000000056e-01,8.783333333333331883e-02
3.750000000000000000e+02,1.660000000000000087e-01,7.800000000000002764e-02
3.800000000000000000e+02,1.419999999999999873e-01,7.316666666666664376e-02
3.850000000000000000e+02,1.280000000000000027e-01,6.816666666666668095e-02
3.900000000000000000e+02,1.199999999999999956e-01,6.450000000000000178e-02
3.950000000000000000e+02,1.140000000000000041e-01,6.116666666666666780e-02
4.000000000000000000e+02,1.089999999999999997e-01,5.816666666666666513e-02
4.050000000000000000e+02,1.039999999999999952e-01,5.483333333333333115e-02
4.100000000000000000e+02,1.000000000000000056e-01,5.183333333333334236e-02
4.150000000000000000e+02,9.700000000000000289e-02,4.983333333333334059e-02
4.200000000000000000e+02,9.400000000000000022e-02,4.800000000000000794e-02
4.250000000000000000e+02,9.199999999999999845e-02,4.650000000000000661e-02
4.300000000000000000e+02,8.899999999999999578e-02,4.450000000000000483e-02
4.350000000000000000e+02,8.599999999999999312e-02,4.233333333333333393e-02
4.400000000000000000e+02,8.400000000000000522e-02,4.083333333333333953e-02
4.450000000000000000e+02,8.200000000000000344e-02,3.966666666666666952e-02
4.500000000000000000e+02,8.000000000000000167e-02,3.799999999999999906e-02
4.550000000000000000e+02,7.799999999999999989e-02,3.649999999999999772e-02
4.600000000000000000e+02,7.599999999999999811e-02,3.499999999999999639e-02
4.650000000000000000e+02,7.499999999999999722e-02,3.466666666666665814e-02
4.700000000000000000e+02,7.299999999999999545e-02,3.299999999999999462e-02
4.750000000000000000e+02,7.199999999999999456e-02,3.233333333333332504e-02
4.800000000000000000e+02,7.000000000000000666e-02,3.066666666666666846e-02
4.850000000000000000e+02,6.900000000000000577e-02,2.983333333333333670e-02
4.900000000000000000e+02,6.800000000000000488e-02,2.916666666666666713e-02
4.950000000000000000e+02,6.700000000000000400e-02,2.833333333333333537e-02
5.000000000000000000e+02,6.600000000000000311e-02,2.733333333333333448e-02
5.050000000000000000e+02,6.500000000000000222e-02,2.666666666666666491e-02
5.100000000000000000e+02,6.400000000000000133e-02,2.566666666666666402e-02
5.150000000000000000e+02,6.300000000000000044e-02,2.450000000000000094e-02
5.200000000000000000e+02,6.300000000000000044e-02,2.450000000000000094e-02
5.250000000000000000e+02,6.199999999999999956e-02,2.366666666666666224e-02
5.300000000000000000e+02,6.099999999999999867e-02,2.249999999999999917e-02
5.350000000000000000e+02,6.099999999999999867e-02,2.233333333333333004e-02
5.400000000000000000e+02,6.099999999999999867e-02,2.216666666666666091e-02
5.450000000000000000e+02,5.999999999999999778e-02,2.116666666666666002e-02
5.500000000000000000e+02,5.999999999999999778e-02,2.116666666666666002e-02
5.550000000000000000e+02,5.999999999999999778e-02,2.099999999999999784e-02
5.600000000000000000e+02,5.899999999999999689e-02,2.016666666666665914e-02
5.650000000000000000e+02,5.899999999999999689e-02,1.983333333333332782e-02
5.700000000000000000e+02,5.899999999999999689e-02,1.983333333333332782e-02
5.750000000000000000e+02,5.800000000000000294e-02,1.883333333333333387e-02
5.800000000000000000e+02,5.800000000000000294e-02,1.883333333333333387e-02
5.850000000000000000e+02,5.800000000000000294e-02,1.883333333333333387e-02
5.900000000000000000e+02,5.800000000000000294e-02,1.833333333333333343e-02
5.950000000000000000e+02,5.800000000000000294e-02,1.850000000000000255e-02
6.000000000000000000e+02,5.800000000000000294e-02,1.816666666666666430e-02
6.050000000000000000e+02,5.800000000000000294e-02,1.816666666666666430e-02
6.100000000000000000e+02,5.700000000000000205e-02,1.716666666666666341e-02
6.150000000000000000e+02,5.700000000000000205e-02,1.750000000000000167e-02
6.200000000000000000e+02,5.600000000000000117e-02,1.666666666666666297e-02
6.250000000000000000e+02,5.600000000000000117e-02,1.666666666666666297e-02
6.300000000000000000e+02,5.600000000000000117e-02,1.683333333333333209e-02
6.350000000000000000e+02,5.500000000000000028e-02,1.583333333333333121e-02
6.400000000000000000e+02,5.500000000000000028e-02,1.616666666666666252e-02
6.450000000000000000e+02,5.500000000000000028e-02,1.616666666666666252e-02
6.500000000000000000e+02,5.399999999999999939e-02,1.533333333333333076e-02
6.550000000000000000e+02,5.399999999999999939e-02,1.533333333333333076e-02
6.600000000000000000e+02,5.399999999999999939e-02,1.516666666666666163e-02
6.650000000000000000e+02,5.399999999999999939e-02,1.533333333333333076e-02
6.700000000000000000e+02,5.399999999999999939e-02,1.549999999999999989e-02
6.750000000000000000e+02,5.299999999999999850e-02,1.449999999999999900e-02
6.800000000000000000e+02,5.299999999999999850e-02,1.466666666666666119e-02
6.850000000000000000e+02,5.299999999999999850e-02,1.466666666666666119e-02
6.900000000000000000e+02,5.299999999999999850e-02,1.483333333333333032e-02
6.950000000000000000e+02,5.299999999999999850e-02,1.466666666666666119e-02
7.000000000000000000e+02,5.199999999999999761e-02,1.349999999999999811e-02
7.050000000000000000e+02,5.299999999999999850e-02,1.366666666666666030e-02
7.100000000000000000e+02,5.500000000000000028e-02,1.433333333333333681e-02
7.150000000000000000e+02,5.600000000000000117e-02,1.433333333333333681e-02
7.200000000000000000e+02,5.600000000000000117e-02,1.416666666666666768e-02
7.250000000000000000e+02,5.700000000000000205e-02,1.433333333333333681e-02
7.300000000000000000e+02,5.800000000000000294e-02,1.350000000000001199e-02
7.350000000000000000e+02,5.899999999999999689e-02,1.250000000000000416e-02
7.400000000000000000e+02,5.999999999999999778e-02,1.300000000000000461e-02
7.450000000000000000e+02,5.999999999999999778e-02,1.283333333333333548e-02
7.500000000000000000e+02,5.999999999999999778e-02,1.283333333333333548e-02
7.550000000000000000e+02,5.899999999999999689e-02,1.183333333333333459e-02
7.600000000000000000e+02,5.899999999999999689e-02,1.183333333333333459e-02
7.650000000000000000e+02,5.899999999999999689e-02,1.216666666666666591e-02
7.700000000000000000e+02,5.899999999999999689e-02,1.250000000000000416e-02
7.750000000000000000e+02,5.800000000000000294e-02,1.183333333333334153e-02
7.800000000000000000e+02,5.700000000000000205e-02,1.150000000000001021e-02
7.850000000000000000e+02,5.700000000000000205e-02,1.183333333333334153e-02
7.900000000000000000e+02,5.600000000000000117e-02,1.166666666666667240e-02
7.950000000000000000e+02,5.500000000000000028e-02,1.100000000000000977e-02
8.000000000000000000e+02,5.399999999999999939e-02,1.083333333333333370e-02
8.050000000000000000e+02,5.399999999999999939e-02,1.083333333333333370e-02
8.100000000000000000e+02,5.399999999999999939e-02,1.099999999999999589e-02
8.150000000000000000e+02,5.399999999999999939e-02,1.083333333333333370e-02
8.200000000000000000e+02,5.500000000000000028e-02,1.116666666666667196e-02
8.250000000000000000e+02,5.500000000000000028e-02,1.033333333333334020e-02
8.300000000000000000e+02,5.700000000000000205e-02,1.000000000000000888e-02
8.350000000000000000e+02,5.899999999999999689e-02,9.666666666666663688e-03
8.400000000000000000e+02,5.899999999999999689e-02,9.166666666666663243e-03
8.450000000000000000e+02,5.999999999999999778e-02,9.333333333333332371e-03
8.500000000000000000e+02,5.999999999999999778e-02,8.500000000000000611e-03
8.550000000000000000e+02,6.099999999999999867e-02,9.000000000000001055e-03
8.600000000000000000e+02,6.199999999999999956e-02,8.500000000000000611e-03
8.650000000000000000e+02,6.400000000000000133e-02,8.500000000000000611e-03
8.700000000000000000e+02,6.700000000000000400e-02,8.500000000000007550e-03
8.750000000000000000e+02,6.900000000000000577e-02,7.833333333333337978e-03
8.800000000000000000e+02,6.900000000000000577e-02,8.666666666666676677e-03
8.850000000000000000e+02,6.700000000000000400e-02,7.500000000000006661e-03
8.900000000000000000e+02,6.700000000000000400e-02,7.833333333333337978e-03
8.950000000000000000e+02,6.800000000000000488e-02,8.000000000000007105e-03
9.000000000000000000e+02,6.900000000000000577e-02,7.833333333333337978e-03
9.050000000000000000e+02,7.000000000000000666e-02,7.333333333333344473e-03
9.100000000000000000e+02,7.199999999999999456e-02,6.833333333333330151e-03
9.150000000000000000e+02,7.499999999999999722e-02,6.833333333333330151e-03
9.200000000000000000e+02,7.900000000000000078e-02,7.166666666666668406e-03
9.250000000000000000e+02,8.500000000000000611e-02,6.000000000000005329e-03
9.300000000000000000e+02,9.400000000000000022e-02,5.666666666666680952e-03
9.350000000000000000e+02,1.049999999999999961e-01,4.000000000000003553e-03
9.400000000000000000e+02,1.179999999999999938e-01,4.166666666666651864e-03
9.450000000000000000e+02,1.370000000000000107e-01,3.833333333333327486e-03
9.500000000000000000e+02,1.620000000000000051e-01,2.166666666666650087e-03
9.550000000000000000e+02,1.930000000000000049e-01,8.333333333333248216e-04
9.600000000000000000e+02,2.179999999999999993e-01,-1.166666666666649199e-03
9.650000000000000000e+02,2.290000000000000091e-01,-1.000000000000000888e-03
9.700000000000000000e+02,2.340000000000000135e-01,-9.999999999999731326e-04
9.750000000000000000e+02,2.359999999999999876e-01,-1.666666666666677399e-03
9.800000000000000000e+02,2.349999999999999867e-01,-1.999999999999974021e-03
9.850000000000000000e+02,2.310000000000000109e-01,-1.833333333333325710e-03
9.900000000000000000e+02,2.230000000000000038e-01,-1.166666666666704710e-03
9.950000000000000000e+02,2.179999999999999993e-01,-1.833333333333325710e-03
