wavelength,absorbance,subtracted_absorbance
3.000000000000000000e+02,1.441999999999999948e+00,7.851666666666664574e-01
3.050000000000000000e+02,1.270000000000000018e+00,7.561666666666667647e-01
3.100000000000000000e+02,1.187000000000000055e+00,7.346666666666668011e-01
3.150000000000000000e+02,1.122999999999999998e+00,7.093333333333333712e-01
3.200000000000000000e+02,1.056000000000000050e+00,6.806666666666667531e-01
3.250000000000000000e+02,9.939999999999999947e-01,6.505000000000000782e-01
3.300000000000000000e+02,9.360000000000000542e-01,6.196666666666666989e-01
3.350000000000000000e+02,8.790000000000000036e-01,5.908333333333333215e-01
3.400000000000000000e+02,8.279999999999999583e-01,5.628333333333332966e-01
3.450000000000000000e+02,7.890000000000000346e-01,5.400000000000000355e-01
3.500000000000000000e+02,7.590000000000000080e-01,5.208333333333333703e-01
3.550000000000000000e+02,7.339999999999999858e-01,5.060000000000000053e-01
3.600000000000000000e+02,7.069999999999999618e-01,4.936666666666665870e-01
3.650000000000000000e+02,6.720000000000000417e-01,4.826666666666666883e-01
3.700000000000000000e+02,6.159999999999999920e-01,4.788333333333333330e-01
3.750000000000000000e+02,5.639999999999999458e-01,4.759999999999999787e-01
3.800000000000000000e+02,5.390000000000000346e-01,4.701666666666666772e-01
3.850000000000000000e+02,5.210000000000000187e-01,4.611666666666666692e-01
3.900000000000000000e+02,5.090000000000000080e-01,4.535000000000000142e-01
3.950000000000000000e+02,4.989999999999999991e-01,4.461666666666666559e-01
4.000000000000000000e+02,4.899999999999999911e-01,4.391666666666666496e-01
4.050000000000000000e+02,4.819999999999999840e-01,4.328333333333332922e-01
4.100000000000000000e+02,4.749999999999999778e-01,4.268333333333332869e-01
4.150000000000000000e+02,4.680000000000000271e-01,4.208333333333333925e-01
4.200000000000000000e+02,4.620000000000000218e-01,4.160000000000000364e-01
4.250000000000000000e+02,4.570000000000000173e-01,4.115000000000000324e-01
4.300000000000000000e+02,4.520000000000000129e-01,4.075000000000000289e-01
4.350000000000000000e+02,4.480000000000000093e-01,4.043333333333333224e-01
4.400000000000000000e+02,4.450000000000000067e-01,4.018333333333333202e-01
4.450000000000000000e+02,4.420000000000000040e-01,3.996666666666666701e-01
4.500000000000000000e+02,4.400000000000000022e-01,3.980000000000000204e-01
4.550000000000000000e+02,4.380000000000000004e-01,3.965000000000000191e-01
4.600000000000000000e+02,4.380000000000000004e-01,3.970000000000000195e-01
4.650000000000000000e+02,4.380000000000000004e-01,3.976666666666666683e-01
4.700000000000000000e+02,4.410000000000000031e-01,4.010000000000000231e-01
4.750000000000000000e+02,4.450000000000000067e-01,4.053333333333333233e-01
4.800000000000000000e+02,4.540000000000000147e-01,4.146666666666666834e-01
4.850000000000000000e+02,4.650000000000000244e-01,4.258333333333333415e-01
4.900000000000000000e+02,4.849999999999999867e-01,4.461666666666666559e-01
4.950000000000000000e+02,5.090000000000000080e-01,4.703333333333333255e-01
5.000000000000000000e+02,5.410000000000000364e-01,5.023333333333334094e-01
5.050000000000000000e+02,5.799999999999999600e-01,5.416666666666666297e-01
5.100000000000000000e+02,6.229999999999999982e-01,5.846666666666666679e-01
5.150000000000000000e+02,6.660000000000000364e-01,6.275000000000000577e-01
5.200000000000000000e+02,7.059999999999999609e-01,6.674999999999999822e-01
5.250000000000000000e+02,7.399999999999999911e-01,7.016666666666666607e-01
5.300000000000000000e+02,7.610000000000000098e-01,7.225000000000000311e-01
5.350000000000000000e+02,7.720000000000000195e-01,7.333333333333333925e-01
5.400000000000000000e+02,7.690000000000000169e-01,7.301666666666666305e-01
5.450000000000000000e+02,7.530000000000000027e-01,7.141666666666666163e-01
5.500000000000000000e+02,7.279999999999999805e-01,6.891666666666665941e-01
5.550000000000000000e+02,6.929999999999999494e-01,6.539999999999999147e-01
5.600000000000000000e+02,6.520000000000000240e-01,6.131666666666666377e-01
5.650000000000000000e+02,6.099999999999999867e-01,5.708333333333333037e-01
5.700000000000000000e+02,5.669999999999999485e-01,5.278333333333332655e-01
5.750000000000000000e+02,5.270000000000000240e-01,4.878333333333333410e-01
5.800000000000000000e+02,4.899999999999999911e-01,4.508333333333333082e-01
5.850000000000000000e+02,4.560000000000000164e-01,4.168333333333333335e-01
5.900000000000000000e+02,4.249999999999999889e-01,3.853333333333333055e-01
5.950000000000000000e+02,3.980000000000000204e-01,3.585000000000000409e-01
6.000000000000000000e+02,3.750000000000000000e-01,3.351666666666666683e-01
6.050000000000000000e+02,3.529999999999999805e-01,3.131666666666666488e-01
6.100000000000000000e+02,3.340000000000000191e-01,2.941666666666666874e-01
6.150000000000000000e+02,3.170000000000000040e-01,2.775000000000000244e-01
6.200000000000000000e+02,3.019999999999999907e-01,2.626666666666666594e-01
6.250000000000000000e+02,2.879999999999999782e-01,2.486666666666666470e-01
6.300000000000000000e+02,2.770000000000000240e-01,2.378333333333333410e-01
6.350000000000000000e+02,2.660000000000000142e-01,2.268333333333333313e-01
6.400000000000000000e+02,2.570000000000000062e-01,2.181666666666666754e-01
6.450000000000000000e+02,2.489999999999999991e-01,2.101666666666666683e-01
6.500000000000000000e+02,2.409999999999999920e-01,2.023333333333333095e-01
6.550000000000000000e+02,2.340000000000000135e-01,1.953333333333333588e-01
6.600000000000000000e+02,2.280000000000000082e-01,1.891666666666666774e-01
6.650000000000000000e+02,2.220000000000000029e-01,1.833333333333333481e-01
6.700000000000000000e+02,2.159999999999999976e-01,1.774999999999999911e-01
6.750000000000000000e+02,2.109999999999999931e-01,1.724999999999999867e-01
6.800000000000000000e+02,2.069999999999999896e-01,1.686666666666666592e-01
6.850000000000000000e+02,2.030000000000000138e-01,1.646666666666666834e-01
6.900000000000000000e+02,1.990000000000000102e-01,1.608333333333333282e-01
6.950000000000000000e+02,1.960000000000000075e-01,1.576666666666666772e-01
7.000000000000000000e+02,1.930000000000000049e-01,1.544999999999999984e-01
7.050000000000000000e+02,1.900000000000000022e-01,1.506666666666666710e-01
7.100000000000000000e+02,1.880000000000000004e-01,1.473333333333333439e-01
7.150000000000000000e+02,1.859999999999999987e-01,1.443333333333333413e-01
7.200000000000000000e+02,1.829999999999999960e-01,1.411666666666666625e-01
7.250000000000000000e+02,1.819999999999999951e-01,1.393333333333333368e-01
7.300000000000000000e+02,1.809999999999999942e-01,1.365000000000000102e-01
7.350000000000000000e+02,1.809999999999999942e-01,1.345000000000000084e-01
7.400000000000000000e+02,1.799999999999999933e-01,1.330000000000000071e-01
7.450000000000000000e+02,1.789999999999999925e-01,1.318333333333333302e-01
7.500000000000000000e+02,1.769999999999999907e-01,1.298333333333333284e-01
7.550000000000000000e+02,1.749999999999999889e-01,1.278333333333333266e-01
7.600000000000000000e+02,1.729999999999999871e-01,1.258333333333333248e-01
7.650000000000000000e+02,1.719999999999999862e-01,1.251666666666666483e-01
7.700000000000000000e+02,1.700000000000000122e-01,1.235000000000000264e-01
7.750000000000000000e+02,1.680000000000000104e-01,1.218333333333333490e-01
7.800000000000000000e+02,1.660000000000000087e-01,1.205000000000000238e-01
7.850000000000000000e+02,1.640000000000000069e-01,1.188333333333333464e-01
7.900000000000000000e+02,1.620000000000000051e-01,1.176666666666666694e-01
7.950000000000000000e+02,1.600000000000000033e-01,1.160000000000000198e-01
8.000000000000000000e+02,1.590000000000000024e-01,1.158333333333333437e-01
8.050000000000000000e+02,1.570000000000000007e-01,1.138333333333333419e-01
8.100000000000000000e+02,1.559999999999999998e-01,1.129999999999999893e-01
8.150000000000000000e+02,1.539999999999999980e-01,1.108333333333333393e-01
8.200000000000000000e+02,1.549999999999999989e-01,1.111666666666666636e-01
8.250000000000000000e+02,1.539999999999999980e-01,1.093333333333333379e-01
8.300000000000000000e+02,1.549999999999999989e-01,1.080000000000000127e-01
8.350000000000000000e+02,1.559999999999999998e-01,1.066666666666666596e-01
8.400000000000000000e+02,1.559999999999999998e-01,1.061666666666666592e-01
8.450000000000000000e+02,1.559999999999999998e-01,1.053333333333333344e-01
8.500000000000000000e+02,1.559999999999999998e-01,1.045000000000000095e-01
8.550000000000000000e+02,1.549999999999999989e-01,1.030000000000000082e-01
8.600000000000000000e+02,1.559999999999999998e-01,1.025000000000000078e-01
8.650000000000000000e+02,1.570000000000000007e-01,1.015000000000000069e-01
8.700000000000000000e+02,1.590000000000000024e-01,1.005000000000000060e-01
8.750000000000000000e+02,1.620000000000000051e-01,1.008333333333333304e-01
8.800000000000000000e+02,1.600000000000000033e-01,9.966666666666668117e-02
8.850000000000000000e+02,1.570000000000000007e-01,9.750000000000000333e-02
8.900000000000000000e+02,1.559999999999999998e-01,9.683333333333332682e-02
8.950000000000000000e+02,1.559999999999999998e-01,9.600000000000000200e-02
9.000000000000000000e+02,1.559999999999999998e-01,9.483333333333332504e-02
9.050000000000000000e+02,1.570000000000000007e-01,9.433333333333333848e-02
9.100000000000000000e+02,1.580000000000000016e-01,9.283333333333333715e-02
9.150000000000000000e+02,1.610000000000000042e-01,9.283333333333333715e-02
9.200000000000000000e+02,1.630000000000000060e-01,9.116666666666667362e-02
9.250000000000000000e+02,1.690000000000000113e-01,9.000000000000001055e-02
9.300000000000000000e+02,1.779999999999999916e-01,8.966666666666667229e-02
9.350000000000000000e+02,1.890000000000000013e-01,8.800000000000000877e-02
9.400000000000000000e+02,2.010000000000000120e-01,8.716666666666667007e-02
9.450000000000000000e+02,2.190000000000000002e-01,8.583333333333331705e-02
9.500000000000000000e+02,2.439999999999999947e-01,8.416666666666663965e-02
9.550000000000000000e+02,2.750000000000000222e-01,8.283333333333334214e-02
9.600000000000000000e+02,3.009999999999999898e-01,8.183333333333334125e-02
9.650000000000000000e+02,3.099999999999999978e-01,7.999999999999998779e-02
9.700000000000000000e+02,3.140000000000000013e-01,7.900000000000001465e-02
9.750000000000000000e+02,3.160000000000000031e-01,7.833333333333333814e-02
9.800000000000000000e+02,3.140000000000000013e-01,7.700000000000004063e-02
9.850000000000000000e+02,3.089999999999999969e-01,7.616666666666666030e-02
9.900000000000000000e+02,3.009999999999999898e-01,7.683333333333328130e-02
9.950000000000000000e+02,2.939999999999999836e-01,7.416666666666665853e-02
