wavelength,absorbance,subtracted_absorbance
3.000000000000000000e+02,8.800000000000000044e-01,2.231666666666665133e-01
3.050000000000000000e+02,7.239999999999999769e-01,2.101666666666667238e-01
3.100000000000000000e+02,6.540000000000000258e-01,2.016666666666667163e-01
3.150000000000000000e+02,6.099999999999999867e-01,1.963333333333333597e-01
3.200000000000000000e+02,5.649999999999999467e-01,1.896666666666666501e-01
3.250000000000000000e+02,5.270000000000000240e-01,1.835000000000001075e-01
3.300000000000000000e+02,4.949999999999999956e-01,1.786666666666666403e-01
3.350000000000000000e+02,4.610000000000000209e-01,1.728333333333333943e-01
3.400000000000000000e+02,4.319999999999999951e-01,1.668333333333332780e-01
3.450000000000000000e+02,4.129999999999999782e-01,1.640000000000000069e-01
3.500000000000000000e+02,4.000000000000000222e-01,1.618333333333333846e-01
3.550000000000000000e+02,3.890000000000000124e-01,1.610000000000000320e-01
3.600000000000000000e+02,3.719999999999999973e-01,1.586666666666666503e-01
3.650000000000000000e+02,3.430000000000000271e-01,1.536666666666667014e-01
3.700000000000000000e+02,2.780000000000000249e-01,1.408333333333333381e-01
3.750000000000000000e+02,2.159999999999999976e-01,1.280000000000000027e-01
3.800000000000000000e+02,1.920000000000000040e-01,1.231666666666666604e-01
3.850000000000000000e+02,1.799999999999999933e-01,1.201666666666666716e-01
3.900000000000000000e+02,1.739999999999999880e-01,1.184999999999999942e-01
3.950000000000000000e+02,1.710000000000000131e-01,1.181666666666666698e-01
4.000000000000000000e+02,1.680000000000000104e-01,1.171666666666666690e-01
4.050000000000000000e+02,1.650000000000000078e-01,1.158333333333333437e-01
4.100000000000000000e+02,1.630000000000000060e-01,1.148333333333333428e-01
4.150000000000000000e+02,1.610000000000000042e-01,1.138333333333333419e-01
4.200000000000000000e+02,1.590000000000000024e-01,1.130000000000000171e-01
4.250000000000000000e+02,1.570000000000000007e-01,1.115000000000000158e-01
4.300000000000000000e+02,1.549999999999999989e-01,1.105000000000000149e-01
4.350000000000000000e+02,1.539999999999999980e-01,1.103333333333333388e-01
4.400000000000000000e+02,1.519999999999999962e-01,1.088333333333333375e-01
4.450000000000000000e+02,1.509999999999999953e-01,1.086666666666666614e-01
4.500000000000000000e+02,1.499999999999999944e-01,1.079999999999999849e-01
4.550000000000000000e+02,1.479999999999999927e-01,1.064999999999999836e-01
4.600000000000000000e+02,1.469999999999999918e-01,1.059999999999999831e-01
4.650000000000000000e+02,1.459999999999999909e-01,1.056666666666666587e-01
4.700000000000000000e+02,1.459999999999999909e-01,1.059999999999999831e-01
4.750000000000000000e+02,1.449999999999999900e-01,1.053333333333333205e-01
4.800000000000000000e+02,1.459999999999999909e-01,1.066666666666666596e-01
4.850000000000000000e+02,1.459999999999999909e-01,1.068333333333333218e-01
4.900000000000000000e+02,1.489999999999999936e-01,1.101666666666666627e-01
4.950000000000000000e+02,1.519999999999999962e-01,1.133333333333333276e-01
5.000000000000000000e+02,1.570000000000000007e-01,1.183333333333333320e-01
5.050000000000000000e+02,1.640000000000000069e-01,1.256666666666666765e-01
5.100000000000000000e+02,1.719999999999999862e-01,1.336666666666666559e-01
5.150000000000000000e+02,1.799999999999999933e-01,1.414999999999999869e-01
5.200000000000000000e+02,1.869999999999999996e-01,1.484999999999999931e-01
5.250000000000000000e+02,1.940000000000000058e-01,1.556666666666666754e-01
5.300000000000000000e+02,1.990000000000000102e-01,1.605000000000000038e-01
5.350000000000000000e+02,2.020000000000000129e-01,1.633333333333333304e-01
5.400000000000000000e+02,2.039999999999999869e-01,1.651666666666666561e-01
5.450000000000000000e+02,2.039999999999999869e-01,1.651666666666666561e-01
5.500000000000000000e+02,2.020000000000000129e-01,1.631666666666666821e-01
5.550000000000000000e+02,1.990000000000000102e-01,1.600000000000000033e-01
5.600000000000000000e+02,1.950000000000000067e-01,1.561666666666666758e-01
5.650000000000000000e+02,1.900000000000000022e-01,1.508333333333333193e-01
5.700000000000000000e+02,1.859999999999999987e-01,1.468333333333333157e-01
5.750000000000000000e+02,1.809999999999999942e-01,1.418333333333333113e-01
5.800000000000000000e+02,1.779999999999999916e-01,1.388333333333333086e-01
5.850000000000000000e+02,1.749999999999999889e-01,1.358333333333333059e-01
5.900000000000000000e+02,1.719999999999999862e-01,1.323333333333333028e-01
5.950000000000000000e+02,1.700000000000000122e-01,1.305000000000000049e-01
6.000000000000000000e+02,1.690000000000000113e-01,1.291666666666666796e-01
6.050000000000000000e+02,1.670000000000000095e-01,1.271666666666666778e-01
6.100000000000000000e+02,1.660000000000000087e-01,1.261666666666666770e-01
6.150000000000000000e+02,1.650000000000000078e-01,1.255000000000000004e-01
6.200000000000000000e+02,1.640000000000000069e-01,1.246666666666666756e-01
6.250000000000000000e+02,1.630000000000000060e-01,1.236666666666666747e-01
6.300000000000000000e+02,1.620000000000000051e-01,1.228333333333333360e-01
6.350000000000000000e+02,1.610000000000000042e-01,1.218333333333333351e-01
6.400000000000000000e+02,1.610000000000000042e-01,1.221666666666666734e-01
6.450000000000000000e+02,1.600000000000000033e-01,1.211666666666666725e-01
6.500000000000000000e+02,1.600000000000000033e-01,1.213333333333333347e-01
6.550000000000000000e+02,1.590000000000000024e-01,1.203333333333333338e-01
6.600000000000000000e+02,1.580000000000000016e-01,1.191666666666666707e-01
6.650000000000000000e+02,1.580000000000000016e-01,1.193333333333333329e-01
6.700000000000000000e+02,1.570000000000000007e-01,1.184999999999999942e-01
6.750000000000000000e+02,1.559999999999999998e-01,1.174999999999999933e-01
6.800000000000000000e+02,1.549999999999999989e-01,1.166666666666666685e-01
6.850000000000000000e+02,1.539999999999999980e-01,1.156666666666666676e-01
6.900000000000000000e+02,1.539999999999999980e-01,1.158333333333333298e-01
6.950000000000000000e+02,1.529999999999999971e-01,1.146666666666666667e-01
7.000000000000000000e+02,1.519999999999999962e-01,1.134999999999999898e-01
7.050000000000000000e+02,1.509999999999999953e-01,1.116666666666666641e-01
7.100000000000000000e+02,1.509999999999999953e-01,1.103333333333333388e-01
7.150000000000000000e+02,1.509999999999999953e-01,1.093333333333333379e-01
7.200000000000000000e+02,1.509999999999999953e-01,1.091666666666666619e-01
7.250000000000000000e+02,1.519999999999999962e-01,1.093333333333333379e-01
7.300000000000000000e+02,1.519999999999999962e-01,1.075000000000000122e-01
7.350000000000000000e+02,1.539999999999999980e-01,1.075000000000000122e-01
7.400000000000000000e+02,1.529999999999999971e-01,1.060000000000000109e-01
7.450000000000000000e+02,1.529999999999999971e-01,1.058333333333333348e-01
7.500000000000000000e+02,1.519999999999999962e-01,1.048333333333333339e-01
7.550000000000000000e+02,1.509999999999999953e-01,1.038333333333333330e-01
7.600000000000000000e+02,1.499999999999999944e-01,1.028333333333333321e-01
7.650000000000000000e+02,1.489999999999999936e-01,1.021666666666666556e-01
7.700000000000000000e+02,1.479999999999999927e-01,1.015000000000000069e-01
7.750000000000000000e+02,1.459999999999999909e-01,9.983333333333332948e-02
7.800000000000000000e+02,1.449999999999999900e-01,9.950000000000000511e-02
7.850000000000000000e+02,1.429999999999999882e-01,9.783333333333332771e-02
7.900000000000000000e+02,1.419999999999999873e-01,9.766666666666665164e-02
7.950000000000000000e+02,1.400000000000000133e-01,9.600000000000002975e-02
8.000000000000000000e+02,1.390000000000000124e-01,9.583333333333335369e-02
8.050000000000000000e+02,1.380000000000000115e-01,9.483333333333335280e-02
8.100000000000000000e+02,1.370000000000000107e-01,9.400000000000000022e-02
8.150000000000000000e+02,1.360000000000000098e-01,9.283333333333335102e-02
8.200000000000000000e+02,1.340000000000000080e-01,9.016666666666667274e-02
8.250000000000000000e+02,1.360000000000000098e-01,9.133333333333334969e-02
8.300000000000000000e+02,1.380000000000000115e-01,9.100000000000002531e-02
8.350000000000000000e+02,1.380000000000000115e-01,8.866666666666667140e-02
8.400000000000000000e+02,1.380000000000000115e-01,8.816666666666667096e-02
8.450000000000000000e+02,1.380000000000000115e-01,8.733333333333334614e-02
8.500000000000000000e+02,1.370000000000000107e-01,8.550000000000002043e-02
8.550000000000000000e+02,1.370000000000000107e-01,8.500000000000001998e-02
8.600000000000000000e+02,1.380000000000000115e-01,8.450000000000001954e-02
8.650000000000000000e+02,1.390000000000000124e-01,8.350000000000001865e-02
8.700000000000000000e+02,1.409999999999999865e-01,8.249999999999999001e-02
8.750000000000000000e+02,1.439999999999999891e-01,8.283333333333331439e-02
8.800000000000000000e+02,1.400000000000000133e-01,7.966666666666669117e-02
8.850000000000000000e+02,1.409999999999999865e-01,8.149999999999998912e-02
8.900000000000000000e+02,1.390000000000000124e-01,7.983333333333333948e-02
8.950000000000000000e+02,1.380000000000000115e-01,7.800000000000001377e-02
9.000000000000000000e+02,1.390000000000000124e-01,7.783333333333333770e-02
9.050000000000000000e+02,1.400000000000000133e-01,7.733333333333335113e-02
9.100000000000000000e+02,1.409999999999999865e-01,7.583333333333332205e-02
9.150000000000000000e+02,1.429999999999999882e-01,7.483333333333332116e-02
9.200000000000000000e+02,1.479999999999999927e-01,7.616666666666666030e-02
9.250000000000000000e+02,1.529999999999999971e-01,7.399999999999999634e-02
9.300000000000000000e+02,1.620000000000000051e-01,7.366666666666668584e-02
9.350000000000000000e+02,1.729999999999999871e-01,7.199999999999999456e-02
9.400000000000000000e+02,1.859999999999999987e-01,7.216666666666665675e-02
9.450000000000000000e+02,2.039999999999999869e-01,7.083333333333330373e-02
9.500000000000000000e+02,2.300000000000000100e-01,7.016666666666665497e-02
9.550000000000000000e+02,2.630000000000000115e-01,7.083333333333333148e-02
9.600000000000000000e+02,2.889999999999999791e-01,6.983333333333333059e-02
9.650000000000000000e+02,2.989999999999999880e-01,6.899999999999997802e-02
9.700000000000000000e+02,3.039999999999999925e-01,6.900000000000000577e-02
9.750000000000000000e+02,3.049999999999999933e-01,6.733333333333332837e-02
9.800000000000000000e+02,3.059999999999999942e-01,6.900000000000003353e-02
9.850000000000000000e+02,3.009999999999999898e-01,6.816666666666665320e-02
9.900000000000000000e+02,2.899999999999999800e-01,6.583333333333327153e-02
9.950000000000000000e+02,2.889999999999999791e-01,6.916666666666665408e-02
