wavelength,absorbance,subtracted_absorbance
3.000000000000000000e+02,1.274000000000000021e+00,6.171666666666665302e-01
3.050000000000000000e+02,1.098999999999999977e+00,5.851666666666667238e-01
3.100000000000000000e+02,1.006000000000000005e+00,5.536666666666667513e-01
3.150000000000000000e+02,9.360000000000000542e-01,5.223333333333334272e-01
3.200000000000000000e+02,8.639999999999999902e-01,4.886666666666666936e-01
3.250000000000000000e+02,8.000000000000000444e-01,4.565000000000001279e-01
3.300000000000000000e+02,7.399999999999999911e-01,4.236666666666666359e-01
3.350000000000000000e+02,6.800000000000000488e-01,3.918333333333334223e-01
3.400000000000000000e+02,6.260000000000000009e-01,3.608333333333332837e-01
3.450000000000000000e+02,5.789999999999999591e-01,3.299999999999999600e-01
3.500000000000000000e+02,5.410000000000000364e-01,3.028333333333333988e-01
3.550000000000000000e+02,5.040000000000000036e-01,2.760000000000000231e-01
3.600000000000000000e+02,4.650000000000000244e-01,2.516666666666667052e-01
3.650000000000000000e+02,4.179999999999999827e-01,2.286666666666666570e-01
3.700000000000000000e+02,3.439999999999999725e-01,2.068333333333332857e-01
3.750000000000000000e+02,2.750000000000000222e-01,1.870000000000000551e-01
3.800000000000000000e+02,2.389999999999999902e-01,1.701666666666666328e-01
3.850000000000000000e+02,2.129999999999999949e-01,1.531666666666666732e-01
3.900000000000000000e+02,1.950000000000000067e-01,1.395000000000000129e-01
3.950000000000000000e+02,1.789999999999999925e-01,1.261666666666666492e-01
4.000000000000000000e+02,1.640000000000000069e-01,1.131666666666666654e-01
4.050000000000000000e+02,1.519999999999999962e-01,1.028333333333333321e-01
4.100000000000000000e+02,1.409999999999999865e-01,9.283333333333332327e-02
4.150000000000000000e+02,1.310000000000000053e-01,8.383333333333334303e-02
4.200000000000000000e+02,1.219999999999999973e-01,7.600000000000001199e-02
4.250000000000000000e+02,1.150000000000000050e-01,6.950000000000000622e-02
4.300000000000000000e+02,1.089999999999999997e-01,6.450000000000000178e-02
4.350000000000000000e+02,1.019999999999999934e-01,5.833333333333333426e-02
4.400000000000000000e+02,9.700000000000000289e-02,5.383333333333333720e-02
4.450000000000000000e+02,9.199999999999999845e-02,4.966666666666666452e-02
4.500000000000000000e+02,8.799999999999999489e-02,4.599999999999999228e-02
4.550000000000000000e+02,8.400000000000000522e-02,4.250000000000000305e-02
4.600000000000000000e+02,8.100000000000000255e-02,4.000000000000000083e-02
4.650000000000000000e+02,7.699999999999999900e-02,3.666666666666665991e-02
4.700000000000000000e+02,7.399999999999999634e-02,3.399999999999999550e-02
4.750000000000000000e+02,7.199999999999999456e-02,3.233333333333332504e-02
4.800000000000000000e+02,6.900000000000000577e-02,2.966666666666666757e-02
4.850000000000000000e+02,6.700000000000000400e-02,2.783333333333333492e-02
4.900000000000000000e+02,6.500000000000000222e-02,2.616666666666666446e-02
4.950000000000000000e+02,6.300000000000000044e-02,2.433333333333333182e-02
5.000000000000000000e+02,6.099999999999999867e-02,2.233333333333333004e-02
5.050000000000000000e+02,5.999999999999999778e-02,2.166666666666666047e-02
5.100000000000000000e+02,5.899999999999999689e-02,2.066666666666665958e-02
5.150000000000000000e+02,5.700000000000000205e-02,1.850000000000000255e-02
5.200000000000000000e+02,5.600000000000000117e-02,1.750000000000000167e-02
5.250000000000000000e+02,5.500000000000000028e-02,1.666666666666666297e-02
5.300000000000000000e+02,5.399999999999999939e-02,1.549999999999999989e-02
5.350000000000000000e+02,5.299999999999999850e-02,1.433333333333332987e-02
5.400000000000000000e+02,5.199999999999999761e-02,1.316666666666665986e-02
5.450000000000000000e+02,5.099999999999999672e-02,1.216666666666665897e-02
5.500000000000000000e+02,5.099999999999999672e-02,1.216666666666665897e-02
5.550000000000000000e+02,5.000000000000000278e-02,1.100000000000000283e-02
5.600000000000000000e+02,4.900000000000000189e-02,1.016666666666666413e-02
5.650000000000000000e+02,4.800000000000000100e-02,8.833333333333331927e-03
5.700000000000000000e+02,4.700000000000000011e-02,7.833333333333331039e-03
5.750000000000000000e+02,4.700000000000000011e-02,7.833333333333331039e-03
5.800000000000000000e+02,4.599999999999999922e-02,6.833333333333330151e-03
5.850000000000000000e+02,4.599999999999999922e-02,6.833333333333330151e-03
5.900000000000000000e+02,4.499999999999999833e-02,5.333333333333328818e-03
5.950000000000000000e+02,4.499999999999999833e-02,5.499999999999997946e-03
6.000000000000000000e+02,4.499999999999999833e-02,5.166666666666659691e-03
6.050000000000000000e+02,4.399999999999999745e-02,4.166666666666658803e-03
6.100000000000000000e+02,4.399999999999999745e-02,4.166666666666658803e-03
6.150000000000000000e+02,4.399999999999999745e-02,4.499999999999997058e-03
6.200000000000000000e+02,4.299999999999999656e-02,3.666666666666658358e-03
6.250000000000000000e+02,4.299999999999999656e-02,3.666666666666658358e-03
6.300000000000000000e+02,4.200000000000000261e-02,2.833333333333333537e-03
6.350000000000000000e+02,4.200000000000000261e-02,2.833333333333333537e-03
6.400000000000000000e+02,4.100000000000000172e-02,2.166666666666663965e-03
6.450000000000000000e+02,4.100000000000000172e-02,2.166666666666663965e-03
6.500000000000000000e+02,4.100000000000000172e-02,2.333333333333333093e-03
6.550000000000000000e+02,4.100000000000000172e-02,2.333333333333333093e-03
6.600000000000000000e+02,4.100000000000000172e-02,2.166666666666663965e-03
6.650000000000000000e+02,4.000000000000000083e-02,1.333333333333332205e-03
6.700000000000000000e+02,4.000000000000000083e-02,1.500000000000001332e-03
6.750000000000000000e+02,4.000000000000000083e-02,1.500000000000001332e-03
6.800000000000000000e+02,4.000000000000000083e-02,1.666666666666663521e-03
6.850000000000000000e+02,4.000000000000000083e-02,1.666666666666663521e-03
6.900000000000000000e+02,4.000000000000000083e-02,1.833333333333332649e-03
6.950000000000000000e+02,4.000000000000000083e-02,1.666666666666663521e-03
7.000000000000000000e+02,4.000000000000000083e-02,1.500000000000001332e-03
7.050000000000000000e+02,4.100000000000000172e-02,1.666666666666663521e-03
7.100000000000000000e+02,4.100000000000000172e-02,3.333333333333382553e-04
7.150000000000000000e+02,4.200000000000000261e-02,3.333333333333382553e-04
7.200000000000000000e+02,4.299999999999999656e-02,1.166666666666663077e-03
7.250000000000000000e+02,4.399999999999999745e-02,1.333333333333332205e-03
7.300000000000000000e+02,4.599999999999999922e-02,1.500000000000008271e-03
7.350000000000000000e+02,4.800000000000000100e-02,1.500000000000008271e-03
7.400000000000000000e+02,4.900000000000000189e-02,2.000000000000008715e-03
7.450000000000000000e+02,4.900000000000000189e-02,1.833333333333339588e-03
7.500000000000000000e+02,4.900000000000000189e-02,1.833333333333339588e-03
7.550000000000000000e+02,4.900000000000000189e-02,1.833333333333339588e-03
7.600000000000000000e+02,4.900000000000000189e-02,1.833333333333339588e-03
7.650000000000000000e+02,4.900000000000000189e-02,2.166666666666670904e-03
7.700000000000000000e+02,4.900000000000000189e-02,2.500000000000009159e-03
7.750000000000000000e+02,4.800000000000000100e-02,1.833333333333339588e-03
7.800000000000000000e+02,4.800000000000000100e-02,2.500000000000009159e-03
7.850000000000000000e+02,4.800000000000000100e-02,2.833333333333340476e-03
7.900000000000000000e+02,4.700000000000000011e-02,2.666666666666671348e-03
7.950000000000000000e+02,4.599999999999999922e-02,2.000000000000008715e-03
8.000000000000000000e+02,4.599999999999999922e-02,2.833333333333333537e-03
8.050000000000000000e+02,4.599999999999999922e-02,2.833333333333333537e-03
8.100000000000000000e+02,4.599999999999999922e-02,2.999999999999995726e-03
8.150000000000000000e+02,4.599999999999999922e-02,2.833333333333333537e-03
8.200000000000000000e+02,4.700000000000000011e-02,3.166666666666671792e-03
8.250000000000000000e+02,4.800000000000000100e-02,3.333333333333340920e-03
8.300000000000000000e+02,5.000000000000000278e-02,3.000000000000009603e-03
8.350000000000000000e+02,5.199999999999999761e-02,2.666666666666664409e-03
8.400000000000000000e+02,5.299999999999999850e-02,3.166666666666664853e-03
8.450000000000000000e+02,5.399999999999999939e-02,3.333333333333333981e-03
8.500000000000000000e+02,5.500000000000000028e-02,3.500000000000003109e-03
8.550000000000000000e+02,5.600000000000000117e-02,4.000000000000003553e-03
8.600000000000000000e+02,5.700000000000000205e-02,3.500000000000003109e-03
8.650000000000000000e+02,5.899999999999999689e-02,3.499999999999996170e-03
8.700000000000000000e+02,6.300000000000000044e-02,4.500000000000003997e-03
8.750000000000000000e+02,6.600000000000000311e-02,4.833333333333335313e-03
8.800000000000000000e+02,6.500000000000000222e-02,4.666666666666673124e-03
8.850000000000000000e+02,6.400000000000000133e-02,4.500000000000003997e-03
8.900000000000000000e+02,6.300000000000000044e-02,3.833333333333334425e-03
8.950000000000000000e+02,6.400000000000000133e-02,4.000000000000003553e-03
9.000000000000000000e+02,6.500000000000000222e-02,3.833333333333334425e-03
9.050000000000000000e+02,6.700000000000000400e-02,4.333333333333341808e-03
9.100000000000000000e+02,6.900000000000000577e-02,3.833333333333341364e-03
9.150000000000000000e+02,7.199999999999999456e-02,3.833333333333327486e-03
9.200000000000000000e+02,7.599999999999999811e-02,4.166666666666665741e-03
9.250000000000000000e+02,8.300000000000000433e-02,4.000000000000003553e-03
9.300000000000000000e+02,9.199999999999999845e-02,3.666666666666679175e-03
9.350000000000000000e+02,1.039999999999999952e-01,3.000000000000002665e-03
9.400000000000000000e+02,1.170000000000000068e-01,3.166666666666664853e-03
9.450000000000000000e+02,1.360000000000000098e-01,2.833333333333326598e-03
9.500000000000000000e+02,1.620000000000000051e-01,2.166666666666650087e-03
9.550000000000000000e+02,1.940000000000000058e-01,1.833333333333325710e-03
9.600000000000000000e+02,2.190000000000000002e-01,-1.666666666666483110e-04
9.650000000000000000e+02,2.300000000000000100e-01,0.000000000000000000e+00
9.700000000000000000e+02,2.349999999999999867e-01,0.000000000000000000e+00
9.750000000000000000e+02,2.379999999999999893e-01,3.333333333333243775e-04
9.800000000000000000e+02,2.379999999999999893e-01,1.000000000000028644e-03
9.850000000000000000e+02,2.330000000000000127e-01,1.666666666666760666e-04
9.900000000000000000e+02,2.260000000000000064e-01,1.833333333333297954e-03
9.950000000000000000e+02,2.220000000000000029e-01,2.166666666666677843e-03
