wavelength,absorbance,subtracted_absorbance
3.000000000000000000e+02,9.799999999999999822e-01,3.231666666666664911e-01
3.050000000000000000e+02,8.219999999999999529e-01,3.081666666666666998e-01
3.100000000000000000e+02,7.459999999999999964e-01,2.936666666666666869e-01
3.150000000000000000e+02,6.929999999999999494e-01,2.793333333333333224e-01
3.200000000000000000e+02,6.380000000000000115e-01,2.626666666666667149e-01
3.250000000000000000e+02,5.889999999999999680e-01,2.455000000000000515e-01
3.300000000000000000e+02,5.440000000000000391e-01,2.276666666666666838e-01
3.350000000000000000e+02,5.000000000000000000e-01,2.118333333333333734e-01
3.400000000000000000e+02,4.610000000000000209e-01,1.958333333333333037e-01
3.450000000000000000e+02,4.329999999999999960e-01,1.840000000000000246e-01
3.500000000000000000e+02,4.119999999999999774e-01,1.738333333333333397e-01
3.550000000000000000e+02,3.950000000000000178e-01,1.670000000000000373e-01
3.600000000000000000e+02,3.739999999999999991e-01,1.606666666666666521e-01
3.650000000000000000e+02,3.439999999999999725e-01,1.546666666666666468e-01
3.700000000000000000e+02,2.819999999999999729e-01,1.448333333333332862e-01
3.750000000000000000e+02,2.210000000000000020e-01,1.330000000000000071e-01
3.800000000000000000e+02,1.960000000000000075e-01,1.271666666666666501e-01
3.850000000000000000e+02,1.839999999999999969e-01,1.241666666666666752e-01
3.900000000000000000e+02,1.769999999999999907e-01,1.214999999999999969e-01
3.950000000000000000e+02,1.719999999999999862e-01,1.191666666666666430e-01
4.000000000000000000e+02,1.680000000000000104e-01,1.171666666666666690e-01
4.050000000000000000e+02,1.640000000000000069e-01,1.148333333333333428e-01
4.100000000000000000e+02,1.610000000000000042e-01,1.128333333333333410e-01
4.150000000000000000e+02,1.580000000000000016e-01,1.108333333333333393e-01
4.200000000000000000e+02,1.549999999999999989e-01,1.090000000000000135e-01
4.250000000000000000e+02,1.529999999999999971e-01,1.075000000000000122e-01
4.300000000000000000e+02,1.509999999999999953e-01,1.065000000000000113e-01
4.350000000000000000e+02,1.489999999999999936e-01,1.053333333333333344e-01
4.400000000000000000e+02,1.469999999999999918e-01,1.038333333333333330e-01
4.450000000000000000e+02,1.459999999999999909e-01,1.036666666666666570e-01
4.500000000000000000e+02,1.449999999999999900e-01,1.029999999999999805e-01
4.550000000000000000e+02,1.439999999999999891e-01,1.024999999999999800e-01
4.600000000000000000e+02,1.439999999999999891e-01,1.029999999999999805e-01
4.650000000000000000e+02,1.439999999999999891e-01,1.036666666666666570e-01
4.700000000000000000e+02,1.449999999999999900e-01,1.049999999999999822e-01
4.750000000000000000e+02,1.459999999999999909e-01,1.063333333333333214e-01
4.800000000000000000e+02,1.489999999999999936e-01,1.096666666666666623e-01
4.850000000000000000e+02,1.529999999999999971e-01,1.138333333333333280e-01
4.900000000000000000e+02,1.580000000000000016e-01,1.191666666666666707e-01
4.950000000000000000e+02,1.640000000000000069e-01,1.253333333333333521e-01
5.000000000000000000e+02,1.719999999999999862e-01,1.333333333333333037e-01
5.050000000000000000e+02,1.809999999999999942e-01,1.426666666666666639e-01
5.100000000000000000e+02,1.900000000000000022e-01,1.516666666666666718e-01
5.150000000000000000e+02,1.990000000000000102e-01,1.605000000000000038e-01
5.200000000000000000e+02,2.059999999999999887e-01,1.674999999999999822e-01
5.250000000000000000e+02,2.109999999999999931e-01,1.726666666666666627e-01
5.300000000000000000e+02,2.139999999999999958e-01,1.754999999999999893e-01
5.350000000000000000e+02,2.139999999999999958e-01,1.753333333333333410e-01
5.400000000000000000e+02,2.119999999999999940e-01,1.731666666666666632e-01
5.450000000000000000e+02,2.069999999999999896e-01,1.681666666666666587e-01
5.500000000000000000e+02,2.010000000000000120e-01,1.621666666666666812e-01
5.550000000000000000e+02,1.920000000000000040e-01,1.529999999999999971e-01
5.600000000000000000e+02,1.829999999999999960e-01,1.441666666666666652e-01
5.650000000000000000e+02,1.729999999999999871e-01,1.338333333333333042e-01
5.700000000000000000e+02,1.630000000000000060e-01,1.238333333333333369e-01
5.750000000000000000e+02,1.529999999999999971e-01,1.138333333333333280e-01
5.800000000000000000e+02,1.439999999999999891e-01,1.048333333333333200e-01
5.850000000000000000e+02,1.360000000000000098e-01,9.683333333333334070e-02
5.900000000000000000e+02,1.280000000000000027e-01,8.833333333333333315e-02
5.950000000000000000e+02,1.209999999999999964e-01,8.149999999999998912e-02
6.000000000000000000e+02,1.150000000000000050e-01,7.516666666666665941e-02
6.050000000000000000e+02,1.079999999999999988e-01,6.816666666666665320e-02
6.100000000000000000e+02,1.029999999999999943e-01,6.316666666666664876e-02
6.150000000000000000e+02,9.800000000000000377e-02,5.850000000000000339e-02
6.200000000000000000e+02,9.199999999999999845e-02,5.266666666666666025e-02
6.250000000000000000e+02,8.799999999999999489e-02,4.866666666666665669e-02
6.300000000000000000e+02,8.400000000000000522e-02,4.483333333333333615e-02
6.350000000000000000e+02,8.100000000000000255e-02,4.183333333333333348e-02
6.400000000000000000e+02,7.799999999999999989e-02,3.916666666666666213e-02
6.450000000000000000e+02,7.499999999999999722e-02,3.616666666666665947e-02
6.500000000000000000e+02,7.199999999999999456e-02,3.333333333333332593e-02
6.550000000000000000e+02,7.000000000000000666e-02,3.133333333333333803e-02
6.600000000000000000e+02,6.800000000000000488e-02,2.916666666666666713e-02
6.650000000000000000e+02,6.600000000000000311e-02,2.733333333333333448e-02
6.700000000000000000e+02,6.400000000000000133e-02,2.550000000000000183e-02
6.750000000000000000e+02,6.199999999999999956e-02,2.350000000000000006e-02
6.800000000000000000e+02,6.099999999999999867e-02,2.266666666666666136e-02
6.850000000000000000e+02,5.899999999999999689e-02,2.066666666666665958e-02
6.900000000000000000e+02,5.800000000000000294e-02,1.983333333333333476e-02
6.950000000000000000e+02,5.700000000000000205e-02,1.866666666666666474e-02
7.000000000000000000e+02,5.600000000000000117e-02,1.750000000000000167e-02
7.050000000000000000e+02,5.600000000000000117e-02,1.666666666666666297e-02
7.100000000000000000e+02,5.600000000000000117e-02,1.533333333333333770e-02
7.150000000000000000e+02,5.600000000000000117e-02,1.433333333333333681e-02
7.200000000000000000e+02,5.600000000000000117e-02,1.416666666666666768e-02
7.250000000000000000e+02,5.600000000000000117e-02,1.333333333333333592e-02
7.300000000000000000e+02,5.700000000000000205e-02,1.250000000000001110e-02
7.350000000000000000e+02,5.800000000000000294e-02,1.150000000000001021e-02
7.400000000000000000e+02,5.800000000000000294e-02,1.100000000000000977e-02
7.450000000000000000e+02,5.800000000000000294e-02,1.083333333333334064e-02
7.500000000000000000e+02,5.700000000000000205e-02,9.833333333333339754e-03
7.550000000000000000e+02,5.700000000000000205e-02,9.833333333333339754e-03
7.600000000000000000e+02,5.600000000000000117e-02,8.833333333333338866e-03
7.650000000000000000e+02,5.600000000000000117e-02,9.166666666666670182e-03
7.700000000000000000e+02,5.500000000000000028e-02,8.500000000000007550e-03
7.750000000000000000e+02,5.399999999999999939e-02,7.833333333333337978e-03
7.800000000000000000e+02,5.399999999999999939e-02,8.500000000000007550e-03
7.850000000000000000e+02,5.299999999999999850e-02,7.833333333333337978e-03
7.900000000000000000e+02,5.199999999999999761e-02,7.666666666666668850e-03
7.950000000000000000e+02,5.099999999999999672e-02,7.000000000000006217e-03
8.000000000000000000e+02,5.099999999999999672e-02,7.833333333333331039e-03
8.050000000000000000e+02,5.000000000000000278e-02,6.833333333333337090e-03
8.100000000000000000e+02,4.900000000000000189e-02,5.999999999999998390e-03
8.150000000000000000e+02,4.900000000000000189e-02,5.833333333333336201e-03
8.200000000000000000e+02,5.000000000000000278e-02,6.166666666666674457e-03
8.250000000000000000e+02,5.000000000000000278e-02,5.333333333333342696e-03
8.300000000000000000e+02,5.199999999999999761e-02,5.000000000000004441e-03
8.350000000000000000e+02,5.399999999999999939e-02,4.666666666666666186e-03
8.400000000000000000e+02,5.500000000000000028e-02,5.166666666666666630e-03
8.450000000000000000e+02,5.500000000000000028e-02,4.333333333333334869e-03
8.500000000000000000e+02,5.600000000000000117e-02,4.500000000000003997e-03
8.550000000000000000e+02,5.700000000000000205e-02,5.000000000000004441e-03
8.600000000000000000e+02,5.800000000000000294e-02,4.500000000000003997e-03
8.650000000000000000e+02,5.899999999999999689e-02,3.499999999999996170e-03
8.700000000000000000e+02,6.199999999999999956e-02,3.500000000000003109e-03
8.750000000000000000e+02,6.500000000000000222e-02,3.833333333333334425e-03
8.800000000000000000e+02,6.400000000000000133e-02,3.666666666666672236e-03
8.850000000000000000e+02,6.300000000000000044e-02,3.500000000000003109e-03
8.900000000000000000e+02,6.300000000000000044e-02,3.833333333333334425e-03
8.950000000000000000e+02,6.300000000000000044e-02,3.000000000000002665e-03
9.000000000000000000e+02,6.400000000000000133e-02,2.833333333333333537e-03
9.050000000000000000e+02,6.500000000000000222e-02,2.333333333333340032e-03
9.100000000000000000e+02,6.700000000000000400e-02,1.833333333333339588e-03
9.150000000000000000e+02,7.000000000000000666e-02,1.833333333333339588e-03
9.200000000000000000e+02,7.399999999999999634e-02,2.166666666666663965e-03
9.250000000000000000e+02,8.100000000000000255e-02,2.000000000000001776e-03
9.300000000000000000e+02,8.899999999999999578e-02,6.666666666666765106e-04
9.350000000000000000e+02,1.010000000000000064e-01,1.387778780781445676e-17
9.400000000000000000e+02,1.130000000000000032e-01,-8.333333333333386994e-04
9.450000000000000000e+02,1.320000000000000062e-01,-1.166666666666676955e-03
9.500000000000000000e+02,1.570000000000000007e-01,-2.833333333333354354e-03
9.550000000000000000e+02,1.880000000000000004e-01,-4.166666666666679619e-03
9.600000000000000000e+02,2.129999999999999949e-01,-6.166666666666653640e-03
9.650000000000000000e+02,2.240000000000000047e-01,-6.000000000000005329e-03
9.700000000000000000e+02,2.280000000000000082e-01,-6.999999999999978462e-03
9.750000000000000000e+02,2.310000000000000109e-01,-6.666666666666654084e-03
9.800000000000000000e+02,2.310000000000000109e-01,-5.999999999999949818e-03
9.850000000000000000e+02,2.270000000000000073e-01,-5.833333333333329263e-03
9.900000000000000000e+02,2.190000000000000002e-01,-5.166666666666708263e-03
9.950000000000000000e+02,2.149999999999999967e-01,-4.833333333333328374e-03
