wavelength,absorbance,subtracted_absorbance
3.000000000000000000e+02,1.231999999999999984e+00,5.751666666666664929e-01
3.050000000000000000e+02,1.066000000000000059e+00,5.521666666666668055e-01
3.100000000000000000e+02,9.809999999999999831e-01,5.286666666666666181e-01
3.150000000000000000e+02,9.220000000000000417e-01,5.083333333333334147e-01
3.200000000000000000e+02,8.609999999999999876e-01,4.856666666666666909e-01
3.250000000000000000e+02,8.060000000000000497e-01,4.625000000000001332e-01
3.300000000000000000e+02,7.570000000000000062e-01,4.406666666666666510e-01
3.350000000000000000e+02,7.079999999999999627e-01,4.198333333333333361e-01
3.400000000000000000e+02,6.660000000000000364e-01,4.008333333333333193e-01
3.450000000000000000e+02,6.350000000000000089e-01,3.860000000000000098e-01
3.500000000000000000e+02,6.119999999999999885e-01,3.738333333333333508e-01
3.550000000000000000e+02,5.929999999999999716e-01,3.649999999999999911e-01
3.600000000000000000e+02,5.709999999999999520e-01,3.576666666666665773e-01
3.650000000000000000e+02,5.390000000000000346e-01,3.496666666666666812e-01
3.700000000000000000e+02,4.779999999999999805e-01,3.408333333333333215e-01
3.750000000000000000e+02,4.219999999999999862e-01,3.340000000000000191e-01
3.800000000000000000e+02,3.960000000000000187e-01,3.271666666666666612e-01
3.850000000000000000e+02,3.820000000000000062e-01,3.221666666666666567e-01
3.900000000000000000e+02,3.729999999999999982e-01,3.175000000000000044e-01
3.950000000000000000e+02,3.659999999999999920e-01,3.131666666666666488e-01
4.000000000000000000e+02,3.599999999999999867e-01,3.091666666666666452e-01
4.050000000000000000e+02,3.539999999999999813e-01,3.048333333333332895e-01
4.100000000000000000e+02,3.489999999999999769e-01,3.008333333333332860e-01
4.150000000000000000e+02,3.439999999999999725e-01,2.968333333333332824e-01
4.200000000000000000e+02,3.400000000000000244e-01,2.940000000000000391e-01
4.250000000000000000e+02,3.360000000000000209e-01,2.905000000000000360e-01
4.300000000000000000e+02,3.330000000000000182e-01,2.885000000000000342e-01
4.350000000000000000e+02,3.300000000000000155e-01,2.863333333333333286e-01
4.400000000000000000e+02,3.270000000000000129e-01,2.838333333333333264e-01
4.450000000000000000e+02,3.260000000000000120e-01,2.836666666666666781e-01
4.500000000000000000e+02,3.240000000000000102e-01,2.820000000000000284e-01
4.550000000000000000e+02,3.240000000000000102e-01,2.825000000000000289e-01
4.600000000000000000e+02,3.240000000000000102e-01,2.830000000000000293e-01
4.650000000000000000e+02,3.250000000000000111e-01,2.846666666666666790e-01
4.700000000000000000e+02,3.280000000000000138e-01,2.880000000000000338e-01
4.750000000000000000e+02,3.330000000000000182e-01,2.933333333333333348e-01
4.800000000000000000e+02,3.400000000000000244e-01,3.006666666666666932e-01
4.850000000000000000e+02,3.479999999999999760e-01,3.088333333333332931e-01
4.900000000000000000e+02,3.609999999999999876e-01,3.221666666666666567e-01
4.950000000000000000e+02,3.760000000000000009e-01,3.373333333333333184e-01
5.000000000000000000e+02,3.940000000000000169e-01,3.553333333333333344e-01
5.050000000000000000e+02,4.149999999999999800e-01,3.766666666666666496e-01
5.100000000000000000e+02,4.349999999999999978e-01,3.966666666666666674e-01
5.150000000000000000e+02,4.540000000000000147e-01,4.155000000000000360e-01
5.200000000000000000e+02,4.680000000000000271e-01,4.295000000000000484e-01
5.250000000000000000e+02,4.779999999999999805e-01,4.396666666666666501e-01
5.300000000000000000e+02,4.809999999999999831e-01,4.425000000000000044e-01
5.350000000000000000e+02,4.779999999999999805e-01,4.393333333333332980e-01
5.400000000000000000e+02,4.689999999999999725e-01,4.301666666666666416e-01
5.450000000000000000e+02,4.560000000000000164e-01,4.171666666666666856e-01
5.500000000000000000e+02,4.390000000000000013e-01,4.001666666666666705e-01
5.550000000000000000e+02,4.199999999999999845e-01,3.810000000000000053e-01
5.600000000000000000e+02,3.980000000000000204e-01,3.591666666666666896e-01
5.650000000000000000e+02,3.790000000000000036e-01,3.398333333333333206e-01
5.700000000000000000e+02,3.589999999999999858e-01,3.198333333333333028e-01
5.750000000000000000e+02,3.410000000000000253e-01,3.018333333333333424e-01
5.800000000000000000e+02,3.260000000000000120e-01,2.868333333333333290e-01
5.850000000000000000e+02,3.119999999999999996e-01,2.728333333333333166e-01
5.900000000000000000e+02,2.989999999999999880e-01,2.593333333333333046e-01
5.950000000000000000e+02,2.889999999999999791e-01,2.494999999999999718e-01
6.000000000000000000e+02,2.800000000000000266e-01,2.401666666666666949e-01
6.050000000000000000e+02,2.710000000000000187e-01,2.311666666666666869e-01
6.100000000000000000e+02,2.640000000000000124e-01,2.241666666666666807e-01
6.150000000000000000e+02,2.570000000000000062e-01,2.174999999999999989e-01
6.200000000000000000e+02,2.510000000000000009e-01,2.116666666666666696e-01
6.250000000000000000e+02,2.449999999999999956e-01,2.056666666666666643e-01
6.300000000000000000e+02,2.399999999999999911e-01,2.008333333333333082e-01
6.350000000000000000e+02,2.359999999999999876e-01,1.968333333333333046e-01
6.400000000000000000e+02,2.320000000000000118e-01,1.931666666666666810e-01
6.450000000000000000e+02,2.280000000000000082e-01,1.891666666666666774e-01
6.500000000000000000e+02,2.240000000000000047e-01,1.853333333333333499e-01
6.550000000000000000e+02,2.210000000000000020e-01,1.823333333333333472e-01
6.600000000000000000e+02,2.179999999999999993e-01,1.791666666666666685e-01
6.650000000000000000e+02,2.149999999999999967e-01,1.763333333333333419e-01
6.700000000000000000e+02,2.109999999999999931e-01,1.724999999999999867e-01
6.750000000000000000e+02,2.089999999999999913e-01,1.704999999999999849e-01
6.800000000000000000e+02,2.059999999999999887e-01,1.676666666666666583e-01
6.850000000000000000e+02,2.030000000000000138e-01,1.646666666666666834e-01
6.900000000000000000e+02,2.010000000000000120e-01,1.628333333333333299e-01
6.950000000000000000e+02,1.990000000000000102e-01,1.606666666666666798e-01
7.000000000000000000e+02,1.970000000000000084e-01,1.585000000000000020e-01
7.050000000000000000e+02,1.950000000000000067e-01,1.556666666666666754e-01
7.100000000000000000e+02,1.940000000000000058e-01,1.533333333333333492e-01
7.150000000000000000e+02,1.920000000000000040e-01,1.503333333333333466e-01
7.200000000000000000e+02,1.900000000000000022e-01,1.481666666666666687e-01
7.250000000000000000e+02,1.890000000000000013e-01,1.463333333333333430e-01
7.300000000000000000e+02,1.890000000000000013e-01,1.445000000000000173e-01
7.350000000000000000e+02,1.890000000000000013e-01,1.425000000000000155e-01
7.400000000000000000e+02,1.880000000000000004e-01,1.410000000000000142e-01
7.450000000000000000e+02,1.859999999999999987e-01,1.388333333333333364e-01
7.500000000000000000e+02,1.839999999999999969e-01,1.368333333333333346e-01
7.550000000000000000e+02,1.819999999999999951e-01,1.348333333333333328e-01
7.600000000000000000e+02,1.809999999999999942e-01,1.338333333333333319e-01
7.650000000000000000e+02,1.779999999999999916e-01,1.311666666666666536e-01
7.700000000000000000e+02,1.759999999999999898e-01,1.295000000000000040e-01
7.750000000000000000e+02,1.739999999999999880e-01,1.278333333333333266e-01
7.800000000000000000e+02,1.719999999999999862e-01,1.265000000000000013e-01
7.850000000000000000e+02,1.700000000000000122e-01,1.248333333333333517e-01
7.900000000000000000e+02,1.670000000000000095e-01,1.226666666666666738e-01
7.950000000000000000e+02,1.650000000000000078e-01,1.210000000000000242e-01
8.000000000000000000e+02,1.630000000000000060e-01,1.198333333333333472e-01
8.050000000000000000e+02,1.610000000000000042e-01,1.178333333333333455e-01
8.100000000000000000e+02,1.590000000000000024e-01,1.159999999999999920e-01
8.150000000000000000e+02,1.570000000000000007e-01,1.138333333333333419e-01
8.200000000000000000e+02,1.559999999999999998e-01,1.121666666666666645e-01
8.250000000000000000e+02,1.539999999999999980e-01,1.093333333333333379e-01
8.300000000000000000e+02,1.549999999999999989e-01,1.080000000000000127e-01
8.350000000000000000e+02,1.549999999999999989e-01,1.056666666666666587e-01
8.400000000000000000e+02,1.539999999999999980e-01,1.041666666666666574e-01
8.450000000000000000e+02,1.529999999999999971e-01,1.023333333333333317e-01
8.500000000000000000e+02,1.529999999999999971e-01,1.015000000000000069e-01
8.550000000000000000e+02,1.519999999999999962e-01,1.000000000000000056e-01
8.600000000000000000e+02,1.509999999999999953e-01,9.750000000000000333e-02
8.650000000000000000e+02,1.519999999999999962e-01,9.650000000000000244e-02
8.700000000000000000e+02,1.529999999999999971e-01,9.450000000000000067e-02
8.750000000000000000e+02,1.549999999999999989e-01,9.383333333333332416e-02
8.800000000000000000e+02,1.519999999999999962e-01,9.166666666666667407e-02
8.850000000000000000e+02,1.489999999999999936e-01,8.949999999999999623e-02
8.900000000000000000e+02,1.469999999999999918e-01,8.783333333333331883e-02
8.950000000000000000e+02,1.459999999999999909e-01,8.599999999999999312e-02
9.000000000000000000e+02,1.449999999999999900e-01,8.383333333333331527e-02
9.050000000000000000e+02,1.449999999999999900e-01,8.233333333333332782e-02
9.100000000000000000e+02,1.459999999999999909e-01,8.083333333333332649e-02
9.150000000000000000e+02,1.469999999999999918e-01,7.883333333333332471e-02
9.200000000000000000e+02,1.499999999999999944e-01,7.816666666666666208e-02
9.250000000000000000e+02,1.549999999999999989e-01,7.599999999999999811e-02
9.300000000000000000e+02,1.620000000000000051e-01,7.366666666666668584e-02
9.350000000000000000e+02,1.729999999999999871e-01,7.199999999999999456e-02
9.400000000000000000e+02,1.839999999999999969e-01,7.016666666666665497e-02
9.450000000000000000e+02,2.020000000000000129e-01,6.883333333333332971e-02
9.500000000000000000e+02,2.260000000000000064e-01,6.616666666666665142e-02
9.550000000000000000e+02,2.560000000000000053e-01,6.383333333333332527e-02
9.600000000000000000e+02,2.800000000000000266e-01,6.083333333333337811e-02
9.650000000000000000e+02,2.899999999999999800e-01,5.999999999999997002e-02
9.700000000000000000e+02,2.929999999999999827e-01,5.799999999999999600e-02
9.750000000000000000e+02,2.939999999999999836e-01,5.633333333333331860e-02
9.800000000000000000e+02,2.929999999999999827e-01,5.600000000000002198e-02
9.850000000000000000e+02,2.869999999999999774e-01,5.416666666666664076e-02
9.900000000000000000e+02,2.790000000000000258e-01,5.483333333333331727e-02
9.950000000000000000e+02,2.730000000000000204e-01,5.316666666666669538e-02
