wavelength,absorbance,subtracted_absorbance
3.000000000000000000e+02,9.669999999999999707e-01,3.101666666666664796e-01
3.050000000000000000e+02,7.890000000000000346e-01,2.751666666666667815e-01
3.100000000000000000e+02,7.079999999999999627e-01,2.556666666666666532e-01
3.150000000000000000e+02,6.550000000000000266e-01,2.413333333333333997e-01
3.200000000000000000e+02,5.989999999999999769e-01,2.236666666666666803e-01
3.250000000000000000e+02,5.520000000000000462e-01,2.085000000000001297e-01
3.300000000000000000e+02,5.120000000000000107e-01,1.956666666666666554e-01
3.350000000000000000e+02,4.689999999999999725e-01,1.808333333333333459e-01
3.400000000000000000e+02,4.349999999999999978e-01,1.698333333333332806e-01
3.450000000000000000e+02,4.099999999999999756e-01,1.610000000000000042e-01
3.500000000000000000e+02,3.930000000000000160e-01,1.548333333333333783e-01
3.550000000000000000e+02,3.790000000000000036e-01,1.510000000000000231e-01
3.600000000000000000e+02,3.589999999999999858e-01,1.456666666666666388e-01
3.650000000000000000e+02,3.220000000000000084e-01,1.326666666666666827e-01
3.700000000000000000e+02,2.330000000000000127e-01,9.583333333333332593e-02
3.750000000000000000e+02,1.439999999999999891e-01,5.600000000000000810e-02
3.800000000000000000e+02,1.089999999999999997e-01,4.016666666666665608e-02
3.850000000000000000e+02,9.400000000000000022e-02,3.416666666666667157e-02
3.900000000000000000e+02,8.599999999999999312e-02,3.049999999999999239e-02
3.950000000000000000e+02,8.100000000000000255e-02,2.816666666666666624e-02
4.000000000000000000e+02,7.699999999999999900e-02,2.616666666666666446e-02
4.050000000000000000e+02,7.299999999999999545e-02,2.383333333333333137e-02
4.100000000000000000e+02,7.000000000000000666e-02,2.183333333333334347e-02
4.150000000000000000e+02,6.800000000000000488e-02,2.083333333333334259e-02
4.200000000000000000e+02,6.500000000000000222e-02,1.900000000000000994e-02
4.250000000000000000e+02,6.300000000000000044e-02,1.750000000000000860e-02
4.300000000000000000e+02,6.099999999999999867e-02,1.650000000000000772e-02
4.350000000000000000e+02,5.899999999999999689e-02,1.533333333333333770e-02
4.400000000000000000e+02,5.800000000000000294e-02,1.483333333333333726e-02
4.450000000000000000e+02,5.700000000000000205e-02,1.466666666666666813e-02
4.500000000000000000e+02,5.600000000000000117e-02,1.399999999999999856e-02
4.550000000000000000e+02,5.399999999999999939e-02,1.249999999999999722e-02
4.600000000000000000e+02,5.299999999999999850e-02,1.199999999999999678e-02
4.650000000000000000e+02,5.299999999999999850e-02,1.266666666666665941e-02
4.700000000000000000e+02,5.199999999999999761e-02,1.199999999999999678e-02
4.750000000000000000e+02,5.099999999999999672e-02,1.133333333333332721e-02
4.800000000000000000e+02,5.000000000000000278e-02,1.066666666666666458e-02
4.850000000000000000e+02,5.000000000000000278e-02,1.083333333333333370e-02
4.900000000000000000e+02,4.900000000000000189e-02,1.016666666666666413e-02
4.950000000000000000e+02,4.900000000000000189e-02,1.033333333333333326e-02
5.000000000000000000e+02,4.900000000000000189e-02,1.033333333333333326e-02
5.050000000000000000e+02,4.900000000000000189e-02,1.066666666666666458e-02
5.100000000000000000e+02,4.800000000000000100e-02,9.666666666666663688e-03
5.150000000000000000e+02,4.800000000000000100e-02,9.500000000000001499e-03
5.200000000000000000e+02,4.800000000000000100e-02,9.500000000000001499e-03
5.250000000000000000e+02,4.800000000000000100e-02,9.666666666666663688e-03
5.300000000000000000e+02,4.800000000000000100e-02,9.500000000000001499e-03
5.350000000000000000e+02,4.800000000000000100e-02,9.333333333333332371e-03
5.400000000000000000e+02,4.800000000000000100e-02,9.166666666666663243e-03
5.450000000000000000e+02,4.800000000000000100e-02,9.166666666666663243e-03
5.500000000000000000e+02,4.800000000000000100e-02,9.166666666666663243e-03
5.550000000000000000e+02,4.800000000000000100e-02,9.000000000000001055e-03
5.600000000000000000e+02,4.700000000000000011e-02,8.166666666666662355e-03
5.650000000000000000e+02,4.700000000000000011e-02,7.833333333333331039e-03
5.700000000000000000e+02,4.700000000000000011e-02,7.833333333333331039e-03
5.750000000000000000e+02,4.700000000000000011e-02,7.833333333333331039e-03
5.800000000000000000e+02,4.700000000000000011e-02,7.833333333333331039e-03
5.850000000000000000e+02,4.700000000000000011e-02,7.833333333333331039e-03
5.900000000000000000e+02,4.700000000000000011e-02,7.333333333333330595e-03
5.950000000000000000e+02,4.700000000000000011e-02,7.499999999999999722e-03
6.000000000000000000e+02,4.700000000000000011e-02,7.166666666666661467e-03
6.050000000000000000e+02,4.700000000000000011e-02,7.166666666666661467e-03
6.100000000000000000e+02,4.599999999999999922e-02,6.166666666666660579e-03
6.150000000000000000e+02,4.599999999999999922e-02,6.499999999999998834e-03
6.200000000000000000e+02,4.599999999999999922e-02,6.666666666666661023e-03
6.250000000000000000e+02,4.599999999999999922e-02,6.666666666666661023e-03
6.300000000000000000e+02,4.599999999999999922e-02,6.833333333333330151e-03
6.350000000000000000e+02,4.499999999999999833e-02,5.833333333333329263e-03
6.400000000000000000e+02,4.499999999999999833e-02,6.166666666666660579e-03
6.450000000000000000e+02,4.499999999999999833e-02,6.166666666666660579e-03
6.500000000000000000e+02,4.499999999999999833e-02,6.333333333333329707e-03
6.550000000000000000e+02,4.499999999999999833e-02,6.333333333333329707e-03
6.600000000000000000e+02,4.499999999999999833e-02,6.166666666666660579e-03
6.650000000000000000e+02,4.499999999999999833e-02,6.333333333333329707e-03
6.700000000000000000e+02,4.399999999999999745e-02,5.499999999999997946e-03
6.750000000000000000e+02,4.399999999999999745e-02,5.499999999999997946e-03
6.800000000000000000e+02,4.399999999999999745e-02,5.666666666666660135e-03
6.850000000000000000e+02,4.399999999999999745e-02,5.666666666666660135e-03
6.900000000000000000e+02,4.399999999999999745e-02,5.833333333333329263e-03
6.950000000000000000e+02,4.399999999999999745e-02,5.666666666666660135e-03
7.000000000000000000e+02,4.399999999999999745e-02,5.499999999999997946e-03
7.050000000000000000e+02,4.499999999999999833e-02,5.666666666666660135e-03
7.100000000000000000e+02,4.599999999999999922e-02,5.333333333333335757e-03
7.150000000000000000e+02,4.700000000000000011e-02,5.333333333333335757e-03
7.200000000000000000e+02,4.700000000000000011e-02,5.166666666666666630e-03
7.250000000000000000e+02,4.800000000000000100e-02,5.333333333333335757e-03
7.300000000000000000e+02,5.000000000000000278e-02,5.500000000000011824e-03
7.350000000000000000e+02,5.099999999999999672e-02,4.500000000000003997e-03
7.400000000000000000e+02,5.199999999999999761e-02,5.000000000000004441e-03
7.450000000000000000e+02,5.199999999999999761e-02,4.833333333333335313e-03
7.500000000000000000e+02,5.199999999999999761e-02,4.833333333333335313e-03
7.550000000000000000e+02,5.199999999999999761e-02,4.833333333333335313e-03
7.600000000000000000e+02,5.199999999999999761e-02,4.833333333333335313e-03
7.650000000000000000e+02,5.199999999999999761e-02,5.166666666666666630e-03
7.700000000000000000e+02,5.199999999999999761e-02,5.500000000000004885e-03
7.750000000000000000e+02,5.099999999999999672e-02,4.833333333333335313e-03
7.800000000000000000e+02,5.099999999999999672e-02,5.500000000000004885e-03
7.850000000000000000e+02,5.099999999999999672e-02,5.833333333333336201e-03
7.900000000000000000e+02,5.000000000000000278e-02,5.666666666666674013e-03
7.950000000000000000e+02,4.900000000000000189e-02,5.000000000000011380e-03
8.000000000000000000e+02,4.900000000000000189e-02,5.833333333333336201e-03
8.050000000000000000e+02,4.900000000000000189e-02,5.833333333333336201e-03
8.100000000000000000e+02,4.900000000000000189e-02,5.999999999999998390e-03
8.150000000000000000e+02,4.900000000000000189e-02,5.833333333333336201e-03
8.200000000000000000e+02,5.000000000000000278e-02,6.166666666666674457e-03
8.250000000000000000e+02,5.000000000000000278e-02,5.333333333333342696e-03
8.300000000000000000e+02,5.199999999999999761e-02,5.000000000000004441e-03
8.350000000000000000e+02,5.399999999999999939e-02,4.666666666666666186e-03
8.400000000000000000e+02,5.500000000000000028e-02,5.166666666666666630e-03
8.450000000000000000e+02,5.600000000000000117e-02,5.333333333333335757e-03
8.500000000000000000e+02,5.700000000000000205e-02,5.500000000000004885e-03
8.550000000000000000e+02,5.700000000000000205e-02,5.000000000000004441e-03
8.600000000000000000e+02,5.899999999999999689e-02,5.499999999999997946e-03
8.650000000000000000e+02,6.099999999999999867e-02,5.499999999999997946e-03
8.700000000000000000e+02,6.400000000000000133e-02,5.500000000000004885e-03
8.750000000000000000e+02,6.700000000000000400e-02,5.833333333333336201e-03
8.800000000000000000e+02,6.600000000000000311e-02,5.666666666666674013e-03
8.850000000000000000e+02,6.500000000000000222e-02,5.500000000000004885e-03
8.900000000000000000e+02,6.400000000000000133e-02,4.833333333333335313e-03
8.950000000000000000e+02,6.500000000000000222e-02,5.000000000000004441e-03
9.000000000000000000e+02,6.600000000000000311e-02,4.833333333333335313e-03
9.050000000000000000e+02,6.700000000000000400e-02,4.333333333333341808e-03
9.100000000000000000e+02,6.900000000000000577e-02,3.833333333333341364e-03
9.150000000000000000e+02,7.199999999999999456e-02,3.833333333333327486e-03
9.200000000000000000e+02,7.599999999999999811e-02,4.166666666666665741e-03
9.250000000000000000e+02,8.300000000000000433e-02,4.000000000000003553e-03
9.300000000000000000e+02,9.099999999999999756e-02,2.666666666666678287e-03
9.350000000000000000e+02,1.029999999999999943e-01,2.000000000000001776e-03
9.400000000000000000e+02,1.140000000000000041e-01,1.666666666666621888e-04
9.450000000000000000e+02,1.320000000000000062e-01,-1.166666666666676955e-03
9.500000000000000000e+02,1.570000000000000007e-01,-2.833333333333354354e-03
9.550000000000000000e+02,1.869999999999999996e-01,-5.166666666666680507e-03
9.600000000000000000e+02,2.119999999999999940e-01,-7.166666666666654528e-03
9.650000000000000000e+02,2.220000000000000029e-01,-8.000000000000007105e-03
9.700000000000000000e+02,2.270000000000000073e-01,-7.999999999999979350e-03
9.750000000000000000e+02,2.290000000000000091e-01,-8.666666666666655860e-03
9.800000000000000000e+02,2.280000000000000082e-01,-8.999999999999952482e-03
9.850000000000000000e+02,2.240000000000000047e-01,-8.833333333333331927e-03
9.900000000000000000e+02,2.159999999999999976e-01,-8.166666666666710928e-03
9.950000000000000000e+02,2.119999999999999940e-01,-7.833333333333331039e-03
