wavelength,absorbance,subtracted_absorbance
3.000000000000000000e+02,8.229999999999999538e-01,1.661666666666664627e-01
3.050000000000000000e+02,6.670000000000000373e-01,1.531666666666667842e-01
3.100000000000000000e+02,5.969999999999999751e-01,1.446666666666666656e-01
3.150000000000000000e+02,5.490000000000000435e-01,1.353333333333334165e-01
3.200000000000000000e+02,5.010000000000000009e-01,1.256666666666667043e-01
3.250000000000000000e+02,4.600000000000000200e-01,1.165000000000001035e-01
3.300000000000000000e+02,4.239999999999999880e-01,1.076666666666666328e-01
3.350000000000000000e+02,3.860000000000000098e-01,9.783333333333338322e-02
3.400000000000000000e+02,3.549999999999999822e-01,8.983333333333326509e-02
3.450000000000000000e+02,3.330000000000000182e-01,8.400000000000004685e-02
3.500000000000000000e+02,3.170000000000000040e-01,7.883333333333336634e-02
3.550000000000000000e+02,3.049999999999999933e-01,7.700000000000001288e-02
3.600000000000000000e+02,2.869999999999999774e-01,7.366666666666663033e-02
3.650000000000000000e+02,2.560000000000000053e-01,6.666666666666667962e-02
3.700000000000000000e+02,1.869999999999999996e-01,4.983333333333331283e-02
3.750000000000000000e+02,1.199999999999999956e-01,3.200000000000001454e-02
3.800000000000000000e+02,9.400000000000000022e-02,2.516666666666665664e-02
3.850000000000000000e+02,8.300000000000000433e-02,2.316666666666667568e-02
3.900000000000000000e+02,7.699999999999999900e-02,2.149999999999999828e-02
3.950000000000000000e+02,7.399999999999999634e-02,2.116666666666666002e-02
4.000000000000000000e+02,7.099999999999999367e-02,2.016666666666665914e-02
4.050000000000000000e+02,6.800000000000000488e-02,1.883333333333334081e-02
4.100000000000000000e+02,6.600000000000000311e-02,1.783333333333333992e-02
4.150000000000000000e+02,6.500000000000000222e-02,1.783333333333333992e-02
4.200000000000000000e+02,6.300000000000000044e-02,1.700000000000000816e-02
4.250000000000000000e+02,6.199999999999999956e-02,1.650000000000000772e-02
4.300000000000000000e+02,6.099999999999999867e-02,1.650000000000000772e-02
4.350000000000000000e+02,5.899999999999999689e-02,1.533333333333333770e-02
4.400000000000000000e+02,5.899999999999999689e-02,1.583333333333333121e-02
4.450000000000000000e+02,5.800000000000000294e-02,1.566666666666666902e-02
4.500000000000000000e+02,5.700000000000000205e-02,1.499999999999999944e-02
4.550000000000000000e+02,5.600000000000000117e-02,1.449999999999999900e-02
4.600000000000000000e+02,5.600000000000000117e-02,1.499999999999999944e-02
4.650000000000000000e+02,5.500000000000000028e-02,1.466666666666666119e-02
4.700000000000000000e+02,5.500000000000000028e-02,1.499999999999999944e-02
4.750000000000000000e+02,5.500000000000000028e-02,1.533333333333333076e-02
4.800000000000000000e+02,5.500000000000000028e-02,1.566666666666666208e-02
4.850000000000000000e+02,5.500000000000000028e-02,1.583333333333333121e-02
4.900000000000000000e+02,5.500000000000000028e-02,1.616666666666666252e-02
4.950000000000000000e+02,5.600000000000000117e-02,1.733333333333333254e-02
5.000000000000000000e+02,5.600000000000000117e-02,1.733333333333333254e-02
5.050000000000000000e+02,5.700000000000000205e-02,1.866666666666666474e-02
5.100000000000000000e+02,5.800000000000000294e-02,1.966666666666666563e-02
5.150000000000000000e+02,5.800000000000000294e-02,1.950000000000000344e-02
5.200000000000000000e+02,5.899999999999999689e-02,2.049999999999999739e-02
5.250000000000000000e+02,5.899999999999999689e-02,2.066666666666665958e-02
5.300000000000000000e+02,5.800000000000000294e-02,1.950000000000000344e-02
5.350000000000000000e+02,5.800000000000000294e-02,1.933333333333333431e-02
5.400000000000000000e+02,5.700000000000000205e-02,1.816666666666666430e-02
5.450000000000000000e+02,5.500000000000000028e-02,1.616666666666666252e-02
5.500000000000000000e+02,5.399999999999999939e-02,1.516666666666666163e-02
5.550000000000000000e+02,5.199999999999999761e-02,1.299999999999999767e-02
5.600000000000000000e+02,5.099999999999999672e-02,1.216666666666665897e-02
5.650000000000000000e+02,5.000000000000000278e-02,1.083333333333333370e-02
5.700000000000000000e+02,4.800000000000000100e-02,8.833333333333331927e-03
5.750000000000000000e+02,4.700000000000000011e-02,7.833333333333331039e-03
5.800000000000000000e+02,4.599999999999999922e-02,6.833333333333330151e-03
5.850000000000000000e+02,4.499999999999999833e-02,5.833333333333329263e-03
5.900000000000000000e+02,4.499999999999999833e-02,5.333333333333328818e-03
5.950000000000000000e+02,4.399999999999999745e-02,4.499999999999997058e-03
6.000000000000000000e+02,4.399999999999999745e-02,4.166666666666658803e-03
6.050000000000000000e+02,4.299999999999999656e-02,3.166666666666657914e-03
6.100000000000000000e+02,4.299999999999999656e-02,3.166666666666657914e-03
6.150000000000000000e+02,4.200000000000000261e-02,2.500000000000002220e-03
6.200000000000000000e+02,4.200000000000000261e-02,2.666666666666664409e-03
6.250000000000000000e+02,4.100000000000000172e-02,1.666666666666663521e-03
6.300000000000000000e+02,4.100000000000000172e-02,1.833333333333332649e-03
6.350000000000000000e+02,4.000000000000000083e-02,8.333333333333317605e-04
6.400000000000000000e+02,4.000000000000000083e-02,1.166666666666663077e-03
6.450000000000000000e+02,4.000000000000000083e-02,1.166666666666663077e-03
6.500000000000000000e+02,4.000000000000000083e-02,1.333333333333332205e-03
6.550000000000000000e+02,4.000000000000000083e-02,1.333333333333332205e-03
6.600000000000000000e+02,3.899999999999999994e-02,1.666666666666621888e-04
6.650000000000000000e+02,3.899999999999999994e-02,3.333333333333313164e-04
6.700000000000000000e+02,3.899999999999999994e-02,5.000000000000004441e-04
6.750000000000000000e+02,3.899999999999999994e-02,5.000000000000004441e-04
6.800000000000000000e+02,3.899999999999999994e-02,6.666666666666626329e-04
6.850000000000000000e+02,3.899999999999999994e-02,6.666666666666626329e-04
6.900000000000000000e+02,3.899999999999999994e-02,8.333333333333317605e-04
6.950000000000000000e+02,3.899999999999999994e-02,6.666666666666626329e-04
7.000000000000000000e+02,3.899999999999999994e-02,5.000000000000004441e-04
7.050000000000000000e+02,3.899999999999999994e-02,-3.333333333333382553e-04
7.100000000000000000e+02,4.000000000000000083e-02,-6.666666666666626329e-04
7.150000000000000000e+02,4.100000000000000172e-02,-6.666666666666626329e-04
7.200000000000000000e+02,4.100000000000000172e-02,-8.333333333333317605e-04
7.250000000000000000e+02,4.200000000000000261e-02,-6.666666666666626329e-04
7.300000000000000000e+02,4.399999999999999745e-02,-4.999999999999935052e-04
7.350000000000000000e+02,4.499999999999999833e-02,-1.499999999999994393e-03
7.400000000000000000e+02,4.599999999999999922e-02,-9.999999999999939493e-04
7.450000000000000000e+02,4.599999999999999922e-02,-1.166666666666663077e-03
7.500000000000000000e+02,4.700000000000000011e-02,-1.666666666666621888e-04
7.550000000000000000e+02,4.700000000000000011e-02,-1.666666666666621888e-04
7.600000000000000000e+02,4.700000000000000011e-02,-1.666666666666621888e-04
7.650000000000000000e+02,4.700000000000000011e-02,1.666666666666691277e-04
7.700000000000000000e+02,4.599999999999999922e-02,-4.999999999999935052e-04
7.750000000000000000e+02,4.599999999999999922e-02,-1.666666666666621888e-04
7.800000000000000000e+02,4.599999999999999922e-02,5.000000000000073830e-04
7.850000000000000000e+02,4.499999999999999833e-02,-1.666666666666621888e-04
7.900000000000000000e+02,4.499999999999999833e-02,6.666666666666695718e-04
7.950000000000000000e+02,4.399999999999999745e-02,6.938893903907228378e-18
8.000000000000000000e+02,4.399999999999999745e-02,8.333333333333317605e-04
8.050000000000000000e+02,4.399999999999999745e-02,8.333333333333317605e-04
8.100000000000000000e+02,4.399999999999999745e-02,9.999999999999939493e-04
8.150000000000000000e+02,4.399999999999999745e-02,8.333333333333317605e-04
8.200000000000000000e+02,4.499999999999999833e-02,1.166666666666670016e-03
8.250000000000000000e+02,4.499999999999999833e-02,3.333333333333382553e-04
8.300000000000000000e+02,4.800000000000000100e-02,1.000000000000007827e-03
8.350000000000000000e+02,5.000000000000000278e-02,6.666666666666695718e-04
8.400000000000000000e+02,5.000000000000000278e-02,1.666666666666691277e-04
8.450000000000000000e+02,5.099999999999999672e-02,3.333333333333313164e-04
8.500000000000000000e+02,5.199999999999999761e-02,5.000000000000004441e-04
8.550000000000000000e+02,5.299999999999999850e-02,1.000000000000000888e-03
8.600000000000000000e+02,5.399999999999999939e-02,5.000000000000004441e-04
8.650000000000000000e+02,5.600000000000000117e-02,5.000000000000004441e-04
8.700000000000000000e+02,5.899999999999999689e-02,5.000000000000004441e-04
8.750000000000000000e+02,6.199999999999999956e-02,8.333333333333317605e-04
8.800000000000000000e+02,6.099999999999999867e-02,6.666666666666695718e-04
8.850000000000000000e+02,5.999999999999999778e-02,5.000000000000004441e-04
8.900000000000000000e+02,5.899999999999999689e-02,-1.666666666666691277e-04
8.950000000000000000e+02,5.999999999999999778e-02,0.000000000000000000e+00
9.000000000000000000e+02,6.099999999999999867e-02,-1.666666666666691277e-04
9.050000000000000000e+02,6.199999999999999956e-02,-6.666666666666626329e-04
9.100000000000000000e+02,6.400000000000000133e-02,-1.166666666666663077e-03
9.150000000000000000e+02,6.800000000000000488e-02,-1.666666666666621888e-04
9.200000000000000000e+02,7.099999999999999367e-02,-8.333333333333386994e-04
9.250000000000000000e+02,7.699999999999999900e-02,-2.000000000000001776e-03
9.300000000000000000e+02,8.599999999999999312e-02,-2.333333333333326154e-03
9.350000000000000000e+02,9.700000000000000289e-02,-3.999999999999989675e-03
9.400000000000000000e+02,1.079999999999999988e-01,-5.833333333333343140e-03
9.450000000000000000e+02,1.260000000000000009e-01,-7.166666666666682284e-03
9.500000000000000000e+02,1.499999999999999944e-01,-9.833333333333360571e-03
9.550000000000000000e+02,1.799999999999999933e-01,-1.216666666666668672e-02
9.600000000000000000e+02,2.030000000000000138e-01,-1.616666666666663477e-02
9.650000000000000000e+02,2.139999999999999958e-01,-1.600000000000001421e-02
9.700000000000000000e+02,2.179999999999999993e-01,-1.699999999999998734e-02
9.750000000000000000e+02,2.210000000000000020e-01,-1.666666666666666297e-02
9.800000000000000000e+02,2.200000000000000011e-01,-1.699999999999995959e-02
9.850000000000000000e+02,2.169999999999999984e-01,-1.583333333333333814e-02
9.900000000000000000e+02,2.089999999999999913e-01,-1.516666666666671714e-02
9.950000000000000000e+02,2.049999999999999878e-01,-1.483333333333333726e-02
