wavelength,absorbance,subtracted_absorbance
3.000000000000000000e+02,7.990000000000000435e-01,1.421666666666665524e-01
3.050000000000000000e+02,6.490000000000000213e-01,1.351666666666667682e-01
3.100000000000000000e+02,5.799999999999999600e-01,1.276666666666666505e-01
3.150000000000000000e+02,5.340000000000000302e-01,1.203333333333334032e-01
3.200000000000000000e+02,4.879999999999999893e-01,1.126666666666666927e-01
3.250000000000000000e+02,4.470000000000000084e-01,1.035000000000000919e-01
3.300000000000000000e+02,4.109999999999999765e-01,9.466666666666662122e-02
3.350000000000000000e+02,3.739999999999999991e-01,8.583333333333337256e-02
3.400000000000000000e+02,3.430000000000000271e-01,7.783333333333330994e-02
3.450000000000000000e+02,3.200000000000000067e-01,7.100000000000003531e-02
3.500000000000000000e+02,3.029999999999999916e-01,6.483333333333335391e-02
3.550000000000000000e+02,2.889999999999999791e-01,6.099999999999999867e-02
3.600000000000000000e+02,2.710000000000000187e-01,5.766666666666667163e-02
3.650000000000000000e+02,2.439999999999999947e-01,5.466666666666666896e-02
3.700000000000000000e+02,1.900000000000000022e-01,5.283333333333331550e-02
3.750000000000000000e+02,1.390000000000000124e-01,5.100000000000003142e-02
3.800000000000000000e+02,1.189999999999999947e-01,5.016666666666665109e-02
3.850000000000000000e+02,1.079999999999999988e-01,4.816666666666667013e-02
3.900000000000000000e+02,1.019999999999999934e-01,4.649999999999999273e-02
3.950000000000000000e+02,9.800000000000000377e-02,4.516666666666666746e-02
4.000000000000000000e+02,9.400000000000000022e-02,4.316666666666666569e-02
4.050000000000000000e+02,9.099999999999999756e-02,4.183333333333333348e-02
4.100000000000000000e+02,8.899999999999999578e-02,4.083333333333333259e-02
4.150000000000000000e+02,8.599999999999999312e-02,3.883333333333333082e-02
4.200000000000000000e+02,8.400000000000000522e-02,3.800000000000001293e-02
4.250000000000000000e+02,8.200000000000000344e-02,3.650000000000001160e-02
4.300000000000000000e+02,8.000000000000000167e-02,3.550000000000001071e-02
4.350000000000000000e+02,7.900000000000000078e-02,3.533333333333334159e-02
4.400000000000000000e+02,7.699999999999999900e-02,3.383333333333333331e-02
4.450000000000000000e+02,7.599999999999999811e-02,3.366666666666666419e-02
4.500000000000000000e+02,7.499999999999999722e-02,3.299999999999999462e-02
4.550000000000000000e+02,7.499999999999999722e-02,3.349999999999999506e-02
4.600000000000000000e+02,7.399999999999999634e-02,3.299999999999999462e-02
4.650000000000000000e+02,7.399999999999999634e-02,3.366666666666665725e-02
4.700000000000000000e+02,7.399999999999999634e-02,3.399999999999999550e-02
4.750000000000000000e+02,7.399999999999999634e-02,3.433333333333332682e-02
4.800000000000000000e+02,7.499999999999999722e-02,3.566666666666665902e-02
4.850000000000000000e+02,7.499999999999999722e-02,3.583333333333332815e-02
4.900000000000000000e+02,7.699999999999999900e-02,3.816666666666666125e-02
4.950000000000000000e+02,7.900000000000000078e-02,4.033333333333333215e-02
5.000000000000000000e+02,8.200000000000000344e-02,4.333333333333333481e-02
5.050000000000000000e+02,8.500000000000000611e-02,4.666666666666666879e-02
5.100000000000000000e+02,8.899999999999999578e-02,5.066666666666665847e-02
5.150000000000000000e+02,9.299999999999999933e-02,5.449999999999999983e-02
5.200000000000000000e+02,9.700000000000000289e-02,5.850000000000000339e-02
5.250000000000000000e+02,1.010000000000000064e-01,6.266666666666667607e-02
5.300000000000000000e+02,1.029999999999999943e-01,6.450000000000000178e-02
5.350000000000000000e+02,1.049999999999999961e-01,6.633333333333332749e-02
5.400000000000000000e+02,1.059999999999999970e-01,6.716666666666665231e-02
5.450000000000000000e+02,1.049999999999999961e-01,6.616666666666665142e-02
5.500000000000000000e+02,1.029999999999999943e-01,6.416666666666664964e-02
5.550000000000000000e+02,1.000000000000000056e-01,6.100000000000000561e-02
5.600000000000000000e+02,9.700000000000000289e-02,5.816666666666666513e-02
5.650000000000000000e+02,9.199999999999999845e-02,5.283333333333332937e-02
5.700000000000000000e+02,8.799999999999999489e-02,4.883333333333332582e-02
5.750000000000000000e+02,8.400000000000000522e-02,4.483333333333333615e-02
5.800000000000000000e+02,7.900000000000000078e-02,3.983333333333333171e-02
5.850000000000000000e+02,7.499999999999999722e-02,3.583333333333332815e-02
5.900000000000000000e+02,7.199999999999999456e-02,3.233333333333332504e-02
5.950000000000000000e+02,6.900000000000000577e-02,2.950000000000000538e-02
6.000000000000000000e+02,6.600000000000000311e-02,2.616666666666666446e-02
6.050000000000000000e+02,6.400000000000000133e-02,2.416666666666666269e-02
6.100000000000000000e+02,6.199999999999999956e-02,2.216666666666666091e-02
6.150000000000000000e+02,5.999999999999999778e-02,2.049999999999999739e-02
6.200000000000000000e+02,5.800000000000000294e-02,1.866666666666666474e-02
6.250000000000000000e+02,5.600000000000000117e-02,1.666666666666666297e-02
6.300000000000000000e+02,5.399999999999999939e-02,1.483333333333333032e-02
6.350000000000000000e+02,5.299999999999999850e-02,1.383333333333332943e-02
6.400000000000000000e+02,5.199999999999999761e-02,1.316666666666665986e-02
6.450000000000000000e+02,5.099999999999999672e-02,1.216666666666665897e-02
6.500000000000000000e+02,5.000000000000000278e-02,1.133333333333333415e-02
6.550000000000000000e+02,4.900000000000000189e-02,1.033333333333333326e-02
6.600000000000000000e+02,4.900000000000000189e-02,1.016666666666666413e-02
6.650000000000000000e+02,4.800000000000000100e-02,9.333333333333332371e-03
6.700000000000000000e+02,4.700000000000000011e-02,8.500000000000000611e-03
6.750000000000000000e+02,4.599999999999999922e-02,7.499999999999999722e-03
6.800000000000000000e+02,4.599999999999999922e-02,7.666666666666661911e-03
6.850000000000000000e+02,4.499999999999999833e-02,6.666666666666661023e-03
6.900000000000000000e+02,4.499999999999999833e-02,6.833333333333330151e-03
6.950000000000000000e+02,4.499999999999999833e-02,6.666666666666661023e-03
7.000000000000000000e+02,4.399999999999999745e-02,5.499999999999997946e-03
7.050000000000000000e+02,4.499999999999999833e-02,5.666666666666660135e-03
7.100000000000000000e+02,4.499999999999999833e-02,4.333333333333334869e-03
7.150000000000000000e+02,4.599999999999999922e-02,4.333333333333334869e-03
7.200000000000000000e+02,4.599999999999999922e-02,4.166666666666665741e-03
7.250000000000000000e+02,4.700000000000000011e-02,4.333333333333334869e-03
7.300000000000000000e+02,4.800000000000000100e-02,3.500000000000010048e-03
7.350000000000000000e+02,5.000000000000000278e-02,3.500000000000010048e-03
7.400000000000000000e+02,5.000000000000000278e-02,3.000000000000009603e-03
7.450000000000000000e+02,5.000000000000000278e-02,2.833333333333340476e-03
7.500000000000000000e+02,5.000000000000000278e-02,2.833333333333340476e-03
7.550000000000000000e+02,5.000000000000000278e-02,2.833333333333340476e-03
7.600000000000000000e+02,5.000000000000000278e-02,2.833333333333340476e-03
7.650000000000000000e+02,5.000000000000000278e-02,3.166666666666671792e-03
7.700000000000000000e+02,4.900000000000000189e-02,2.500000000000009159e-03
7.750000000000000000e+02,4.900000000000000189e-02,2.833333333333340476e-03
7.800000000000000000e+02,4.800000000000000100e-02,2.500000000000009159e-03
7.850000000000000000e+02,4.800000000000000100e-02,2.833333333333340476e-03
7.900000000000000000e+02,4.700000000000000011e-02,2.666666666666671348e-03
7.950000000000000000e+02,4.599999999999999922e-02,2.000000000000008715e-03
8.000000000000000000e+02,4.599999999999999922e-02,2.833333333333333537e-03
8.050000000000000000e+02,4.499999999999999833e-02,1.833333333333332649e-03
8.100000000000000000e+02,4.499999999999999833e-02,1.999999999999994837e-03
8.150000000000000000e+02,4.599999999999999922e-02,2.833333333333333537e-03
8.200000000000000000e+02,4.599999999999999922e-02,2.166666666666670904e-03
8.250000000000000000e+02,4.700000000000000011e-02,2.333333333333340032e-03
8.300000000000000000e+02,4.900000000000000189e-02,2.000000000000008715e-03
8.350000000000000000e+02,5.099999999999999672e-02,1.666666666666663521e-03
8.400000000000000000e+02,5.199999999999999761e-02,2.166666666666663965e-03
8.450000000000000000e+02,5.199999999999999761e-02,1.333333333333332205e-03
8.500000000000000000e+02,5.299999999999999850e-02,1.500000000000001332e-03
8.550000000000000000e+02,5.399999999999999939e-02,2.000000000000001776e-03
8.600000000000000000e+02,5.500000000000000028e-02,1.500000000000001332e-03
8.650000000000000000e+02,5.700000000000000205e-02,1.500000000000001332e-03
8.700000000000000000e+02,5.999999999999999778e-02,1.500000000000001332e-03
8.750000000000000000e+02,6.300000000000000044e-02,1.833333333333332649e-03
8.800000000000000000e+02,6.199999999999999956e-02,1.666666666666670460e-03
8.850000000000000000e+02,6.099999999999999867e-02,1.500000000000001332e-03
8.900000000000000000e+02,6.099999999999999867e-02,1.833333333333332649e-03
8.950000000000000000e+02,6.099999999999999867e-02,1.000000000000000888e-03
9.000000000000000000e+02,6.199999999999999956e-02,8.333333333333317605e-04
9.050000000000000000e+02,6.400000000000000133e-02,1.333333333333339144e-03
9.100000000000000000e+02,6.600000000000000311e-02,8.333333333333386994e-04
9.150000000000000000e+02,6.900000000000000577e-02,8.333333333333386994e-04
9.200000000000000000e+02,7.299999999999999545e-02,1.166666666666663077e-03
9.250000000000000000e+02,7.900000000000000078e-02,0.000000000000000000e+00
9.300000000000000000e+02,8.799999999999999489e-02,-3.333333333333243775e-04
9.350000000000000000e+02,9.900000000000000466e-02,-1.999999999999987899e-03
9.400000000000000000e+02,1.110000000000000014e-01,-2.833333333333340476e-03
9.450000000000000000e+02,1.290000000000000036e-01,-4.166666666666679619e-03
9.500000000000000000e+02,1.539999999999999980e-01,-5.833333333333357018e-03
9.550000000000000000e+02,1.839999999999999969e-01,-8.166666666666683172e-03
9.600000000000000000e+02,2.089999999999999913e-01,-1.016666666666665719e-02
9.650000000000000000e+02,2.200000000000000011e-01,-1.000000000000000888e-02
9.700000000000000000e+02,2.240000000000000047e-01,-1.099999999999998201e-02
9.750000000000000000e+02,2.270000000000000073e-01,-1.066666666666665764e-02
9.800000000000000000e+02,2.270000000000000073e-01,-9.999999999999953371e-03
9.850000000000000000e+02,2.230000000000000038e-01,-9.833333333333332815e-03
9.900000000000000000e+02,2.149999999999999967e-01,-9.166666666666711816e-03
9.950000000000000000e+02,2.119999999999999940e-01,-7.833333333333331039e-03
