wavelength,absorbance,subtracted_absorbance
3.000000000000000000e+02,1.512000000000000011e+00,8.551666666666665195e-01
3.050000000000000000e+02,1.340000000000000080e+00,8.261666666666668268e-01
3.100000000000000000e+02,1.250999999999999890e+00,7.986666666666666359e-01
3.150000000000000000e+02,1.187000000000000055e+00,7.733333333333334281e-01
3.200000000000000000e+02,1.122000000000000108e+00,7.466666666666668117e-01
3.250000000000000000e+02,1.064000000000000057e+00,7.205000000000001403e-01
3.300000000000000000e+02,1.012000000000000011e+00,6.956666666666666554e-01
3.350000000000000000e+02,9.599999999999999645e-01,6.718333333333332824e-01
3.400000000000000000e+02,9.170000000000000373e-01,6.518333333333332646e-01
3.450000000000000000e+02,8.840000000000000080e-01,6.350000000000000089e-01
3.500000000000000000e+02,8.609999999999999876e-01,6.228333333333333499e-01
3.550000000000000000e+02,8.419999999999999707e-01,6.139999999999999902e-01
3.600000000000000000e+02,8.179999999999999494e-01,6.046666666666665746e-01
3.650000000000000000e+02,7.840000000000000302e-01,5.946666666666666767e-01
3.700000000000000000e+02,7.159999999999999698e-01,5.788333333333333108e-01
3.750000000000000000e+02,6.490000000000000213e-01,5.610000000000000542e-01
3.800000000000000000e+02,6.199999999999999956e-01,5.511666666666666936e-01
3.850000000000000000e+02,6.019999999999999796e-01,5.421666666666666856e-01
3.900000000000000000e+02,5.899999999999999689e-01,5.344999999999999751e-01
3.950000000000000000e+02,5.809999999999999609e-01,5.281666666666666732e-01
4.000000000000000000e+02,5.719999999999999529e-01,5.211666666666666670e-01
4.050000000000000000e+02,5.629999999999999449e-01,5.138333333333332531e-01
4.100000000000000000e+02,5.560000000000000497e-01,5.078333333333333588e-01
4.150000000000000000e+02,5.490000000000000435e-01,5.018333333333333535e-01
4.200000000000000000e+02,5.430000000000000382e-01,4.970000000000000528e-01
4.250000000000000000e+02,5.380000000000000338e-01,4.925000000000000488e-01
4.300000000000000000e+02,5.340000000000000302e-01,4.895000000000000462e-01
4.350000000000000000e+02,5.300000000000000266e-01,4.863333333333333952e-01
4.400000000000000000e+02,5.280000000000000249e-01,4.848333333333333384e-01
4.450000000000000000e+02,5.260000000000000231e-01,4.836666666666666892e-01
4.500000000000000000e+02,5.250000000000000222e-01,4.830000000000000404e-01
4.550000000000000000e+02,5.260000000000000231e-01,4.845000000000000417e-01
4.600000000000000000e+02,5.280000000000000249e-01,4.870000000000000440e-01
4.650000000000000000e+02,5.320000000000000284e-01,4.916666666666666963e-01
4.700000000000000000e+02,5.390000000000000346e-01,4.990000000000000546e-01
4.750000000000000000e+02,5.480000000000000426e-01,5.083333333333334147e-01
4.800000000000000000e+02,5.610000000000000542e-01,5.216666666666667229e-01
4.850000000000000000e+02,5.759999999999999565e-01,5.368333333333332735e-01
4.900000000000000000e+02,5.979999999999999760e-01,5.591666666666665897e-01
4.950000000000000000e+02,6.209999999999999964e-01,5.823333333333333695e-01
5.000000000000000000e+02,6.500000000000000222e-01,6.113333333333333952e-01
5.050000000000000000e+02,6.800000000000000488e-01,6.416666666666667185e-01
5.100000000000000000e+02,7.099999999999999645e-01,6.716666666666666341e-01
5.150000000000000000e+02,7.349999999999999867e-01,6.965000000000000080e-01
5.200000000000000000e+02,7.560000000000000053e-01,7.175000000000000266e-01
5.250000000000000000e+02,7.690000000000000169e-01,7.306666666666666865e-01
5.300000000000000000e+02,7.730000000000000204e-01,7.345000000000000417e-01
5.350000000000000000e+02,7.700000000000000178e-01,7.313333333333333908e-01
5.400000000000000000e+02,7.570000000000000062e-01,7.181666666666666199e-01
5.450000000000000000e+02,7.389999999999999902e-01,7.001666666666666039e-01
5.500000000000000000e+02,7.139999999999999680e-01,6.751666666666665817e-01
5.550000000000000000e+02,6.860000000000000542e-01,6.470000000000000195e-01
5.600000000000000000e+02,6.550000000000000266e-01,6.161666666666666403e-01
5.650000000000000000e+02,6.250000000000000000e-01,5.858333333333333171e-01
5.700000000000000000e+02,5.939999999999999725e-01,5.548333333333332895e-01
5.750000000000000000e+02,5.659999999999999476e-01,5.268333333333332646e-01
5.800000000000000000e+02,5.390000000000000346e-01,4.998333333333333517e-01
5.850000000000000000e+02,5.140000000000000124e-01,4.748333333333333295e-01
5.900000000000000000e+02,4.909999999999999920e-01,4.513333333333333086e-01
5.950000000000000000e+02,4.689999999999999725e-01,4.294999999999999929e-01
6.000000000000000000e+02,4.510000000000000120e-01,4.111666666666666803e-01
6.050000000000000000e+02,4.329999999999999960e-01,3.931666666666666643e-01
6.100000000000000000e+02,4.159999999999999809e-01,3.761666666666666492e-01
6.150000000000000000e+02,4.000000000000000222e-01,3.605000000000000426e-01
6.200000000000000000e+02,3.850000000000000089e-01,3.456666666666666776e-01
6.250000000000000000e+02,3.709999999999999964e-01,3.316666666666666652e-01
6.300000000000000000e+02,3.589999999999999858e-01,3.198333333333333028e-01
6.350000000000000000e+02,3.479999999999999760e-01,3.088333333333332931e-01
6.400000000000000000e+02,3.370000000000000218e-01,2.981666666666666909e-01
6.450000000000000000e+02,3.270000000000000129e-01,2.881666666666666821e-01
6.500000000000000000e+02,3.170000000000000040e-01,2.783333333333333215e-01
6.550000000000000000e+02,3.079999999999999960e-01,2.693333333333333135e-01
6.600000000000000000e+02,2.999999999999999889e-01,2.611666666666666581e-01
6.650000000000000000e+02,2.909999999999999809e-01,2.523333333333332984e-01
6.700000000000000000e+02,2.839999999999999747e-01,2.454999999999999682e-01
6.750000000000000000e+02,2.760000000000000231e-01,2.375000000000000167e-01
6.800000000000000000e+02,2.690000000000000169e-01,2.306666666666666865e-01
6.850000000000000000e+02,2.620000000000000107e-01,2.236666666666666803e-01
6.900000000000000000e+02,2.560000000000000053e-01,2.178333333333333233e-01
6.950000000000000000e+02,2.500000000000000000e-01,2.116666666666666696e-01
7.000000000000000000e+02,2.439999999999999947e-01,2.054999999999999882e-01
7.050000000000000000e+02,2.389999999999999902e-01,1.996666666666666590e-01
7.100000000000000000e+02,2.349999999999999867e-01,1.943333333333333302e-01
7.150000000000000000e+02,2.300000000000000100e-01,1.883333333333333526e-01
7.200000000000000000e+02,2.260000000000000064e-01,1.841666666666666730e-01
7.250000000000000000e+02,2.210000000000000020e-01,1.783333333333333437e-01
7.300000000000000000e+02,2.179999999999999993e-01,1.735000000000000153e-01
7.350000000000000000e+02,2.159999999999999976e-01,1.695000000000000118e-01
7.400000000000000000e+02,2.119999999999999940e-01,1.650000000000000078e-01
7.450000000000000000e+02,2.079999999999999905e-01,1.608333333333333282e-01
7.500000000000000000e+02,2.039999999999999869e-01,1.568333333333333246e-01
7.550000000000000000e+02,1.990000000000000102e-01,1.518333333333333479e-01
7.600000000000000000e+02,1.950000000000000067e-01,1.478333333333333444e-01
7.650000000000000000e+02,1.910000000000000031e-01,1.441666666666666652e-01
7.700000000000000000e+02,1.869999999999999996e-01,1.405000000000000138e-01
7.750000000000000000e+02,1.819999999999999951e-01,1.358333333333333337e-01
7.800000000000000000e+02,1.779999999999999916e-01,1.325000000000000067e-01
7.850000000000000000e+02,1.739999999999999880e-01,1.288333333333333275e-01
7.900000000000000000e+02,1.700000000000000122e-01,1.256666666666666765e-01
7.950000000000000000e+02,1.650000000000000078e-01,1.210000000000000242e-01
8.000000000000000000e+02,1.620000000000000051e-01,1.188333333333333464e-01
8.050000000000000000e+02,1.580000000000000016e-01,1.148333333333333428e-01
8.100000000000000000e+02,1.539999999999999980e-01,1.109999999999999876e-01
8.150000000000000000e+02,1.509999999999999953e-01,1.078333333333333366e-01
8.200000000000000000e+02,1.479999999999999927e-01,1.041666666666666574e-01
8.250000000000000000e+02,1.459999999999999909e-01,1.013333333333333308e-01
8.300000000000000000e+02,1.449999999999999900e-01,9.800000000000000377e-02
8.350000000000000000e+02,1.439999999999999891e-01,9.466666666666664898e-02
8.400000000000000000e+02,1.419999999999999873e-01,9.216666666666664676e-02
8.450000000000000000e+02,1.400000000000000133e-01,8.933333333333334791e-02
8.500000000000000000e+02,1.390000000000000124e-01,8.750000000000002220e-02
8.550000000000000000e+02,1.370000000000000107e-01,8.500000000000001998e-02
8.600000000000000000e+02,1.350000000000000089e-01,8.150000000000001688e-02
8.650000000000000000e+02,1.350000000000000089e-01,7.950000000000001510e-02
8.700000000000000000e+02,1.350000000000000089e-01,7.650000000000001243e-02
8.750000000000000000e+02,1.360000000000000098e-01,7.483333333333333504e-02
8.800000000000000000e+02,1.330000000000000071e-01,7.266666666666668495e-02
8.850000000000000000e+02,1.300000000000000044e-01,7.050000000000000711e-02
8.900000000000000000e+02,1.270000000000000018e-01,6.783333333333332882e-02
8.950000000000000000e+02,1.260000000000000009e-01,6.600000000000000311e-02
9.000000000000000000e+02,1.250000000000000000e-01,6.383333333333332527e-02
9.050000000000000000e+02,1.239999999999999991e-01,6.133333333333333692e-02
9.100000000000000000e+02,1.239999999999999991e-01,5.883333333333333470e-02
9.150000000000000000e+02,1.260000000000000009e-01,5.783333333333333381e-02
9.200000000000000000e+02,1.280000000000000027e-01,5.616666666666667029e-02
9.250000000000000000e+02,1.330000000000000071e-01,5.400000000000000633e-02
9.300000000000000000e+02,1.400000000000000133e-01,5.166666666666669405e-02
9.350000000000000000e+02,1.499999999999999944e-01,4.900000000000000189e-02
9.400000000000000000e+02,1.610000000000000042e-01,4.716666666666666230e-02
9.450000000000000000e+02,1.789999999999999925e-01,4.583333333333330928e-02
9.500000000000000000e+02,2.020000000000000129e-01,4.216666666666665786e-02
9.550000000000000000e+02,2.330000000000000127e-01,4.083333333333333259e-02
9.600000000000000000e+02,2.560000000000000053e-01,3.683333333333335680e-02
9.650000000000000000e+02,2.660000000000000142e-01,3.600000000000000422e-02
9.700000000000000000e+02,2.700000000000000178e-01,3.500000000000003109e-02
9.750000000000000000e+02,2.710000000000000187e-01,3.333333333333335369e-02
9.800000000000000000e+02,2.700000000000000178e-01,3.300000000000005707e-02
9.850000000000000000e+02,2.650000000000000133e-01,3.216666666666667673e-02
9.900000000000000000e+02,2.550000000000000044e-01,3.083333333333329596e-02
9.950000000000000000e+02,2.500000000000000000e-01,3.016666666666667496e-02
