wavelength,absorbance,subtracted_absorbance
3.000000000000000000e+02,7.990000000000000435e-01,1.421666666666665524e-01
3.050000000000000000e+02,6.330000000000000071e-01,1.191666666666667540e-01
3.100000000000000000e+02,5.580000000000000515e-01,1.056666666666667420e-01
3.150000000000000000e+02,5.110000000000000098e-01,9.733333333333338278e-02
3.200000000000000000e+02,4.630000000000000226e-01,8.766666666666672603e-02
3.250000000000000000e+02,4.229999999999999871e-01,7.950000000000007061e-02
3.300000000000000000e+02,3.910000000000000142e-01,7.466666666666665897e-02
3.350000000000000000e+02,3.549999999999999822e-01,6.683333333333335569e-02
3.400000000000000000e+02,3.270000000000000129e-01,6.183333333333329573e-02
3.450000000000000000e+02,3.069999999999999951e-01,5.800000000000002376e-02
3.500000000000000000e+02,2.929999999999999827e-01,5.483333333333334503e-02
3.550000000000000000e+02,2.810000000000000275e-01,5.300000000000004707e-02
3.600000000000000000e+02,2.640000000000000124e-01,5.066666666666666541e-02
3.650000000000000000e+02,2.349999999999999867e-01,4.566666666666666097e-02
3.700000000000000000e+02,1.729999999999999871e-01,3.583333333333330040e-02
3.750000000000000000e+02,1.110000000000000014e-01,2.300000000000002043e-02
3.800000000000000000e+02,8.699999999999999400e-02,1.816666666666665042e-02
3.850000000000000000e+02,7.499999999999999722e-02,1.516666666666666857e-02
3.900000000000000000e+02,6.900000000000000577e-02,1.350000000000000505e-02
3.950000000000000000e+02,6.600000000000000311e-02,1.316666666666666680e-02
4.000000000000000000e+02,6.300000000000000044e-02,1.216666666666666591e-02
4.050000000000000000e+02,5.999999999999999778e-02,1.083333333333333370e-02
4.100000000000000000e+02,5.899999999999999689e-02,1.083333333333333370e-02
4.150000000000000000e+02,5.700000000000000205e-02,9.833333333333339754e-03
4.200000000000000000e+02,5.500000000000000028e-02,9.000000000000007994e-03
4.250000000000000000e+02,5.399999999999999939e-02,8.500000000000007550e-03
4.300000000000000000e+02,5.299999999999999850e-02,8.500000000000007550e-03
4.350000000000000000e+02,5.199999999999999761e-02,8.333333333333338422e-03
4.400000000000000000e+02,5.099999999999999672e-02,7.833333333333331039e-03
4.450000000000000000e+02,5.000000000000000278e-02,7.666666666666668850e-03
4.500000000000000000e+02,4.900000000000000189e-02,6.999999999999999278e-03
4.550000000000000000e+02,4.900000000000000189e-02,7.499999999999999722e-03
4.600000000000000000e+02,4.800000000000000100e-02,6.999999999999999278e-03
4.650000000000000000e+02,4.700000000000000011e-02,6.666666666666661023e-03
4.700000000000000000e+02,4.700000000000000011e-02,6.999999999999999278e-03
4.750000000000000000e+02,4.599999999999999922e-02,6.333333333333329707e-03
4.800000000000000000e+02,4.599999999999999922e-02,6.666666666666661023e-03
4.850000000000000000e+02,4.599999999999999922e-02,6.833333333333330151e-03
4.900000000000000000e+02,4.499999999999999833e-02,6.166666666666660579e-03
4.950000000000000000e+02,4.499999999999999833e-02,6.333333333333329707e-03
5.000000000000000000e+02,4.499999999999999833e-02,6.333333333333329707e-03
5.050000000000000000e+02,4.499999999999999833e-02,6.666666666666661023e-03
5.100000000000000000e+02,4.499999999999999833e-02,6.666666666666661023e-03
5.150000000000000000e+02,4.499999999999999833e-02,6.499999999999998834e-03
5.200000000000000000e+02,4.499999999999999833e-02,6.499999999999998834e-03
5.250000000000000000e+02,4.499999999999999833e-02,6.666666666666661023e-03
5.300000000000000000e+02,4.499999999999999833e-02,6.499999999999998834e-03
5.350000000000000000e+02,4.499999999999999833e-02,6.333333333333329707e-03
5.400000000000000000e+02,4.499999999999999833e-02,6.166666666666660579e-03
5.450000000000000000e+02,4.499999999999999833e-02,6.166666666666660579e-03
5.500000000000000000e+02,4.499999999999999833e-02,6.166666666666660579e-03
5.550000000000000000e+02,4.499999999999999833e-02,5.999999999999998390e-03
5.600000000000000000e+02,4.499999999999999833e-02,6.166666666666660579e-03
5.650000000000000000e+02,4.499999999999999833e-02,5.833333333333329263e-03
5.700000000000000000e+02,4.499999999999999833e-02,5.833333333333329263e-03
5.750000000000000000e+02,4.499999999999999833e-02,5.833333333333329263e-03
5.800000000000000000e+02,4.499999999999999833e-02,5.833333333333329263e-03
5.850000000000000000e+02,4.499999999999999833e-02,5.833333333333329263e-03
5.900000000000000000e+02,4.499999999999999833e-02,5.333333333333328818e-03
5.950000000000000000e+02,4.499999999999999833e-02,5.499999999999997946e-03
6.000000000000000000e+02,4.499999999999999833e-02,5.166666666666659691e-03
6.050000000000000000e+02,4.499999999999999833e-02,5.166666666666659691e-03
6.100000000000000000e+02,4.499999999999999833e-02,5.166666666666659691e-03
6.150000000000000000e+02,4.499999999999999833e-02,5.499999999999997946e-03
6.200000000000000000e+02,4.399999999999999745e-02,4.666666666666659247e-03
6.250000000000000000e+02,4.399999999999999745e-02,4.666666666666659247e-03
6.300000000000000000e+02,4.399999999999999745e-02,4.833333333333328374e-03
6.350000000000000000e+02,4.399999999999999745e-02,4.833333333333328374e-03
6.400000000000000000e+02,4.399999999999999745e-02,5.166666666666659691e-03
6.450000000000000000e+02,4.399999999999999745e-02,5.166666666666659691e-03
6.500000000000000000e+02,4.399999999999999745e-02,5.333333333333328818e-03
6.550000000000000000e+02,4.399999999999999745e-02,5.333333333333328818e-03
6.600000000000000000e+02,4.299999999999999656e-02,4.166666666666658803e-03
6.650000000000000000e+02,4.399999999999999745e-02,5.333333333333328818e-03
6.700000000000000000e+02,4.299999999999999656e-02,4.499999999999997058e-03
6.750000000000000000e+02,4.299999999999999656e-02,4.499999999999997058e-03
6.800000000000000000e+02,4.299999999999999656e-02,4.666666666666659247e-03
6.850000000000000000e+02,4.299999999999999656e-02,4.666666666666659247e-03
6.900000000000000000e+02,4.299999999999999656e-02,4.833333333333328374e-03
6.950000000000000000e+02,4.299999999999999656e-02,4.666666666666659247e-03
7.000000000000000000e+02,4.399999999999999745e-02,5.499999999999997946e-03
7.050000000000000000e+02,4.399999999999999745e-02,4.666666666666659247e-03
7.100000000000000000e+02,4.499999999999999833e-02,4.333333333333334869e-03
7.150000000000000000e+02,4.599999999999999922e-02,4.333333333333334869e-03
7.200000000000000000e+02,4.599999999999999922e-02,4.166666666666665741e-03
7.250000000000000000e+02,4.700000000000000011e-02,4.333333333333334869e-03
7.300000000000000000e+02,4.900000000000000189e-02,4.500000000000010936e-03
7.350000000000000000e+02,5.099999999999999672e-02,4.500000000000003997e-03
7.400000000000000000e+02,5.199999999999999761e-02,5.000000000000004441e-03
7.450000000000000000e+02,5.199999999999999761e-02,4.833333333333335313e-03
7.500000000000000000e+02,5.199999999999999761e-02,4.833333333333335313e-03
7.550000000000000000e+02,5.199999999999999761e-02,4.833333333333335313e-03
7.600000000000000000e+02,5.199999999999999761e-02,4.833333333333335313e-03
7.650000000000000000e+02,5.199999999999999761e-02,5.166666666666666630e-03
7.700000000000000000e+02,5.199999999999999761e-02,5.500000000000004885e-03
7.750000000000000000e+02,5.199999999999999761e-02,5.833333333333336201e-03
7.800000000000000000e+02,5.099999999999999672e-02,5.500000000000004885e-03
7.850000000000000000e+02,5.099999999999999672e-02,5.833333333333336201e-03
7.900000000000000000e+02,5.000000000000000278e-02,5.666666666666674013e-03
7.950000000000000000e+02,5.000000000000000278e-02,6.000000000000012268e-03
8.000000000000000000e+02,4.900000000000000189e-02,5.833333333333336201e-03
8.050000000000000000e+02,4.900000000000000189e-02,5.833333333333336201e-03
8.100000000000000000e+02,4.900000000000000189e-02,5.999999999999998390e-03
8.150000000000000000e+02,4.900000000000000189e-02,5.833333333333336201e-03
8.200000000000000000e+02,5.000000000000000278e-02,6.166666666666674457e-03
8.250000000000000000e+02,5.099999999999999672e-02,6.333333333333336645e-03
8.300000000000000000e+02,5.299999999999999850e-02,6.000000000000005329e-03
8.350000000000000000e+02,5.500000000000000028e-02,5.666666666666667074e-03
8.400000000000000000e+02,5.600000000000000117e-02,6.166666666666667518e-03
8.450000000000000000e+02,5.700000000000000205e-02,6.333333333333336645e-03
8.500000000000000000e+02,5.700000000000000205e-02,5.500000000000004885e-03
8.550000000000000000e+02,5.800000000000000294e-02,6.000000000000005329e-03
8.600000000000000000e+02,5.899999999999999689e-02,5.499999999999997946e-03
8.650000000000000000e+02,6.099999999999999867e-02,5.499999999999997946e-03
8.700000000000000000e+02,6.500000000000000222e-02,6.500000000000005773e-03
8.750000000000000000e+02,6.800000000000000488e-02,6.833333333333337090e-03
8.800000000000000000e+02,6.700000000000000400e-02,6.666666666666674901e-03
8.850000000000000000e+02,6.600000000000000311e-02,6.500000000000005773e-03
8.900000000000000000e+02,6.500000000000000222e-02,5.833333333333336201e-03
8.950000000000000000e+02,6.600000000000000311e-02,6.000000000000005329e-03
9.000000000000000000e+02,6.700000000000000400e-02,5.833333333333336201e-03
9.050000000000000000e+02,6.900000000000000577e-02,6.333333333333343584e-03
9.100000000000000000e+02,7.099999999999999367e-02,5.833333333333329263e-03
9.150000000000000000e+02,7.399999999999999634e-02,5.833333333333329263e-03
9.200000000000000000e+02,7.799999999999999989e-02,6.166666666666667518e-03
9.250000000000000000e+02,8.500000000000000611e-02,6.000000000000005329e-03
9.300000000000000000e+02,9.400000000000000022e-02,5.666666666666680952e-03
9.350000000000000000e+02,1.059999999999999970e-01,5.000000000000004441e-03
9.400000000000000000e+02,1.179999999999999938e-01,4.166666666666651864e-03
9.450000000000000000e+02,1.370000000000000107e-01,3.833333333333327486e-03
9.500000000000000000e+02,1.630000000000000060e-01,3.166666666666650976e-03
9.550000000000000000e+02,1.940000000000000058e-01,1.833333333333325710e-03
9.600000000000000000e+02,2.200000000000000011e-01,8.333333333333525772e-04
9.650000000000000000e+02,2.310000000000000109e-01,1.000000000000000888e-03
9.700000000000000000e+02,2.359999999999999876e-01,1.000000000000000888e-03
9.750000000000000000e+02,2.379999999999999893e-01,3.333333333333243775e-04
9.800000000000000000e+02,2.379999999999999893e-01,1.000000000000028644e-03
9.850000000000000000e+02,2.340000000000000135e-01,1.166666666666676955e-03
9.900000000000000000e+02,2.260000000000000064e-01,1.833333333333297954e-03
9.950000000000000000e+02,2.210000000000000020e-01,1.166666666666676955e-03
