wavelength,absorbance,subtracted_absorbance
3.000000000000000000e+02,8.439999999999999725e-01,1.871666666666664813e-01
3.050000000000000000e+02,6.919999999999999485e-01,1.781666666666666954e-01
3.100000000000000000e+02,6.189999999999999947e-01,1.666666666666666852e-01
3.150000000000000000e+02,5.699999999999999512e-01,1.563333333333333242e-01
3.200000000000000000e+02,5.190000000000000169e-01,1.436666666666667203e-01
3.250000000000000000e+02,4.759999999999999787e-01,1.325000000000000622e-01
3.300000000000000000e+02,4.390000000000000013e-01,1.226666666666666461e-01
3.350000000000000000e+02,4.020000000000000240e-01,1.138333333333333974e-01
3.400000000000000000e+02,3.709999999999999964e-01,1.058333333333332793e-01
3.450000000000000000e+02,3.479999999999999760e-01,9.900000000000000466e-02
3.500000000000000000e+02,3.320000000000000173e-01,9.383333333333337967e-02
3.550000000000000000e+02,3.180000000000000049e-01,9.000000000000002442e-02
3.600000000000000000e+02,2.989999999999999880e-01,8.566666666666664098e-02
3.650000000000000000e+02,2.690000000000000169e-01,7.966666666666669117e-02
3.700000000000000000e+02,2.010000000000000120e-01,6.383333333333332527e-02
3.750000000000000000e+02,1.350000000000000089e-01,4.700000000000002787e-02
3.800000000000000000e+02,1.069999999999999979e-01,3.816666666666665431e-02
3.850000000000000000e+02,9.400000000000000022e-02,3.416666666666667157e-02
3.900000000000000000e+02,8.599999999999999312e-02,3.049999999999999239e-02
3.950000000000000000e+02,8.100000000000000255e-02,2.816666666666666624e-02
4.000000000000000000e+02,7.699999999999999900e-02,2.616666666666666446e-02
4.050000000000000000e+02,7.299999999999999545e-02,2.383333333333333137e-02
4.100000000000000000e+02,7.000000000000000666e-02,2.183333333333334347e-02
4.150000000000000000e+02,6.700000000000000400e-02,1.983333333333334170e-02
4.200000000000000000e+02,6.400000000000000133e-02,1.800000000000000905e-02
4.250000000000000000e+02,6.199999999999999956e-02,1.650000000000000772e-02
4.300000000000000000e+02,5.999999999999999778e-02,1.550000000000000683e-02
4.350000000000000000e+02,5.800000000000000294e-02,1.433333333333334375e-02
4.400000000000000000e+02,5.600000000000000117e-02,1.283333333333333548e-02
4.450000000000000000e+02,5.399999999999999939e-02,1.166666666666666546e-02
4.500000000000000000e+02,5.299999999999999850e-02,1.099999999999999589e-02
4.550000000000000000e+02,5.199999999999999761e-02,1.049999999999999545e-02
4.600000000000000000e+02,5.099999999999999672e-02,9.999999999999995004e-03
4.650000000000000000e+02,5.000000000000000278e-02,9.666666666666663688e-03
4.700000000000000000e+02,4.900000000000000189e-02,9.000000000000001055e-03
4.750000000000000000e+02,4.800000000000000100e-02,8.333333333333331483e-03
4.800000000000000000e+02,4.800000000000000100e-02,8.666666666666662799e-03
4.850000000000000000e+02,4.700000000000000011e-02,7.833333333333331039e-03
4.900000000000000000e+02,4.599999999999999922e-02,7.166666666666661467e-03
4.950000000000000000e+02,4.599999999999999922e-02,7.333333333333330595e-03
5.000000000000000000e+02,4.499999999999999833e-02,6.333333333333329707e-03
5.050000000000000000e+02,4.499999999999999833e-02,6.666666666666661023e-03
5.100000000000000000e+02,4.499999999999999833e-02,6.666666666666661023e-03
5.150000000000000000e+02,4.399999999999999745e-02,5.499999999999997946e-03
5.200000000000000000e+02,4.399999999999999745e-02,5.499999999999997946e-03
5.250000000000000000e+02,4.399999999999999745e-02,5.666666666666660135e-03
5.300000000000000000e+02,4.299999999999999656e-02,4.499999999999997058e-03
5.350000000000000000e+02,4.299999999999999656e-02,4.333333333333327930e-03
5.400000000000000000e+02,4.299999999999999656e-02,4.166666666666658803e-03
5.450000000000000000e+02,4.299999999999999656e-02,4.166666666666658803e-03
5.500000000000000000e+02,4.200000000000000261e-02,3.166666666666664853e-03
5.550000000000000000e+02,4.200000000000000261e-02,3.000000000000002665e-03
5.600000000000000000e+02,4.200000000000000261e-02,3.166666666666664853e-03
5.650000000000000000e+02,4.100000000000000172e-02,1.833333333333332649e-03
5.700000000000000000e+02,4.100000000000000172e-02,1.833333333333332649e-03
5.750000000000000000e+02,4.100000000000000172e-02,1.833333333333332649e-03
5.800000000000000000e+02,4.100000000000000172e-02,1.833333333333332649e-03
5.850000000000000000e+02,4.100000000000000172e-02,1.833333333333332649e-03
5.900000000000000000e+02,4.100000000000000172e-02,1.333333333333332205e-03
5.950000000000000000e+02,4.000000000000000083e-02,5.000000000000004441e-04
6.000000000000000000e+02,4.000000000000000083e-02,1.666666666666621888e-04
6.050000000000000000e+02,4.000000000000000083e-02,1.666666666666621888e-04
6.100000000000000000e+02,4.000000000000000083e-02,1.666666666666621888e-04
6.150000000000000000e+02,4.000000000000000083e-02,5.000000000000004441e-04
6.200000000000000000e+02,3.899999999999999994e-02,-3.333333333333382553e-04
6.250000000000000000e+02,3.899999999999999994e-02,-3.333333333333382553e-04
6.300000000000000000e+02,3.899999999999999994e-02,-1.666666666666691277e-04
6.350000000000000000e+02,3.899999999999999994e-02,-1.666666666666691277e-04
6.400000000000000000e+02,3.799999999999999906e-02,-8.333333333333386994e-04
6.450000000000000000e+02,3.799999999999999906e-02,-8.333333333333386994e-04
6.500000000000000000e+02,3.799999999999999906e-02,-6.666666666666695718e-04
6.550000000000000000e+02,3.799999999999999906e-02,-6.666666666666695718e-04
6.600000000000000000e+02,3.799999999999999906e-02,-8.333333333333386994e-04
6.650000000000000000e+02,3.799999999999999906e-02,-6.666666666666695718e-04
6.700000000000000000e+02,3.799999999999999906e-02,-5.000000000000004441e-04
6.750000000000000000e+02,3.699999999999999817e-02,-1.500000000000001332e-03
6.800000000000000000e+02,3.699999999999999817e-02,-1.333333333333339144e-03
6.850000000000000000e+02,3.699999999999999817e-02,-1.333333333333339144e-03
6.900000000000000000e+02,3.699999999999999817e-02,-1.166666666666670016e-03
6.950000000000000000e+02,3.699999999999999817e-02,-1.333333333333339144e-03
7.000000000000000000e+02,3.799999999999999906e-02,-5.000000000000004441e-04
7.050000000000000000e+02,3.799999999999999906e-02,-1.333333333333339144e-03
7.100000000000000000e+02,3.899999999999999994e-02,-1.666666666666663521e-03
7.150000000000000000e+02,4.000000000000000083e-02,-1.666666666666663521e-03
7.200000000000000000e+02,4.000000000000000083e-02,-1.833333333333332649e-03
7.250000000000000000e+02,4.100000000000000172e-02,-1.666666666666663521e-03
7.300000000000000000e+02,4.299999999999999656e-02,-1.499999999999994393e-03
7.350000000000000000e+02,4.399999999999999745e-02,-2.499999999999995282e-03
7.400000000000000000e+02,4.499999999999999833e-02,-1.999999999999994837e-03
7.450000000000000000e+02,4.499999999999999833e-02,-2.166666666666663965e-03
7.500000000000000000e+02,4.599999999999999922e-02,-1.166666666666663077e-03
7.550000000000000000e+02,4.599999999999999922e-02,-1.166666666666663077e-03
7.600000000000000000e+02,4.599999999999999922e-02,-1.166666666666663077e-03
7.650000000000000000e+02,4.499999999999999833e-02,-1.833333333333332649e-03
7.700000000000000000e+02,4.499999999999999833e-02,-1.499999999999994393e-03
7.750000000000000000e+02,4.499999999999999833e-02,-1.166666666666663077e-03
7.800000000000000000e+02,4.499999999999999833e-02,-4.999999999999935052e-04
7.850000000000000000e+02,4.399999999999999745e-02,-1.166666666666663077e-03
7.900000000000000000e+02,4.399999999999999745e-02,-3.333333333333313164e-04
7.950000000000000000e+02,4.299999999999999656e-02,-9.999999999999939493e-04
8.000000000000000000e+02,4.299999999999999656e-02,-1.666666666666691277e-04
8.050000000000000000e+02,4.299999999999999656e-02,-1.666666666666691277e-04
8.100000000000000000e+02,4.299999999999999656e-02,-6.938893903907228378e-18
8.150000000000000000e+02,4.299999999999999656e-02,-1.666666666666691277e-04
8.200000000000000000e+02,4.399999999999999745e-02,1.666666666666691277e-04
8.250000000000000000e+02,4.399999999999999745e-02,-6.666666666666626329e-04
8.300000000000000000e+02,4.700000000000000011e-02,6.938893903907228378e-18
8.350000000000000000e+02,4.900000000000000189e-02,-3.333333333333313164e-04
8.400000000000000000e+02,5.000000000000000278e-02,1.666666666666691277e-04
8.450000000000000000e+02,5.000000000000000278e-02,-6.666666666666626329e-04
8.500000000000000000e+02,5.099999999999999672e-02,-5.000000000000004441e-04
8.550000000000000000e+02,5.199999999999999761e-02,0.000000000000000000e+00
8.600000000000000000e+02,5.299999999999999850e-02,-5.000000000000004441e-04
8.650000000000000000e+02,5.500000000000000028e-02,-5.000000000000004441e-04
8.700000000000000000e+02,5.800000000000000294e-02,-4.999999999999935052e-04
8.750000000000000000e+02,6.099999999999999867e-02,-1.666666666666691277e-04
8.800000000000000000e+02,5.999999999999999778e-02,-3.333333333333313164e-04
8.850000000000000000e+02,5.899999999999999689e-02,-5.000000000000004441e-04
8.900000000000000000e+02,5.899999999999999689e-02,-1.666666666666691277e-04
8.950000000000000000e+02,5.899999999999999689e-02,-1.000000000000000888e-03
9.000000000000000000e+02,5.999999999999999778e-02,-1.166666666666670016e-03
9.050000000000000000e+02,6.099999999999999867e-02,-1.666666666666663521e-03
9.100000000000000000e+02,6.400000000000000133e-02,-1.166666666666663077e-03
9.150000000000000000e+02,6.700000000000000400e-02,-1.166666666666663077e-03
9.200000000000000000e+02,7.099999999999999367e-02,-8.333333333333386994e-04
9.250000000000000000e+02,7.699999999999999900e-02,-2.000000000000001776e-03
9.300000000000000000e+02,8.599999999999999312e-02,-2.333333333333326154e-03
9.350000000000000000e+02,9.700000000000000289e-02,-3.999999999999989675e-03
9.400000000000000000e+02,1.089999999999999997e-01,-4.833333333333342252e-03
9.450000000000000000e+02,1.270000000000000018e-01,-6.166666666666681396e-03
9.500000000000000000e+02,1.509999999999999953e-01,-8.833333333333359683e-03
9.550000000000000000e+02,1.809999999999999942e-01,-1.116666666666668584e-02
9.600000000000000000e+02,2.059999999999999887e-01,-1.316666666666665986e-02
9.650000000000000000e+02,2.159999999999999976e-01,-1.400000000000001243e-02
9.700000000000000000e+02,2.200000000000000011e-01,-1.499999999999998557e-02
9.750000000000000000e+02,2.230000000000000038e-01,-1.466666666666666119e-02
9.800000000000000000e+02,2.220000000000000029e-01,-1.499999999999995781e-02
9.850000000000000000e+02,2.169999999999999984e-01,-1.583333333333333814e-02
9.900000000000000000e+02,2.089999999999999913e-01,-1.516666666666671714e-02
9.950000000000000000e+02,2.049999999999999878e-01,-1.483333333333333726e-02
