wavelength,absorbance,subtracted_absorbance
3.000000000000000000e+02,8.970000000000000195e-01,2.401666666666665284e-01
3.050000000000000000e+02,7.409999999999999920e-01,2.271666666666667389e-01
3.100000000000000000e+02,6.660000000000000364e-01,2.136666666666667269e-01
3.150000000000000000e+02,6.129999999999999893e-01,1.993333333333333623e-01
3.200000000000000000e+02,5.550000000000000488e-01,1.796666666666667522e-01
3.250000000000000000e+02,5.040000000000000036e-01,1.605000000000000870e-01
3.300000000000000000e+02,4.560000000000000164e-01,1.396666666666666612e-01
3.350000000000000000e+02,4.060000000000000275e-01,1.178333333333334010e-01
3.400000000000000000e+02,3.629999999999999893e-01,9.783333333333327220e-02
3.450000000000000000e+02,3.290000000000000147e-01,8.000000000000004330e-02
3.500000000000000000e+02,3.039999999999999925e-01,6.583333333333335480e-02
3.550000000000000000e+02,2.829999999999999738e-01,5.499999999999999334e-02
3.600000000000000000e+02,2.600000000000000089e-01,4.666666666666666186e-02
3.650000000000000000e+02,2.290000000000000091e-01,3.966666666666668339e-02
3.700000000000000000e+02,1.749999999999999889e-01,3.783333333333330217e-02
3.750000000000000000e+02,1.219999999999999973e-01,3.400000000000001632e-02
3.800000000000000000e+02,1.010000000000000064e-01,3.216666666666666285e-02
3.850000000000000000e+02,8.899999999999999578e-02,2.916666666666666713e-02
3.900000000000000000e+02,8.300000000000000433e-02,2.750000000000000361e-02
3.950000000000000000e+02,7.799999999999999989e-02,2.516666666666666358e-02
4.000000000000000000e+02,7.399999999999999634e-02,2.316666666666666180e-02
4.050000000000000000e+02,7.000000000000000666e-02,2.083333333333334259e-02
4.100000000000000000e+02,6.800000000000000488e-02,1.983333333333334170e-02
4.150000000000000000e+02,6.500000000000000222e-02,1.783333333333333992e-02
4.200000000000000000e+02,6.199999999999999956e-02,1.600000000000000727e-02
4.250000000000000000e+02,5.899999999999999689e-02,1.350000000000000505e-02
4.300000000000000000e+02,5.700000000000000205e-02,1.250000000000001110e-02
4.350000000000000000e+02,5.500000000000000028e-02,1.133333333333334109e-02
4.400000000000000000e+02,5.399999999999999939e-02,1.083333333333333370e-02
4.450000000000000000e+02,5.199999999999999761e-02,9.666666666666663688e-03
4.500000000000000000e+02,5.099999999999999672e-02,8.999999999999994116e-03
4.550000000000000000e+02,5.000000000000000278e-02,8.500000000000000611e-03
4.600000000000000000e+02,4.900000000000000189e-02,8.000000000000000167e-03
4.650000000000000000e+02,4.900000000000000189e-02,8.666666666666662799e-03
4.700000000000000000e+02,4.800000000000000100e-02,8.000000000000000167e-03
4.750000000000000000e+02,4.800000000000000100e-02,8.333333333333331483e-03
4.800000000000000000e+02,4.700000000000000011e-02,7.666666666666661911e-03
4.850000000000000000e+02,4.700000000000000011e-02,7.833333333333331039e-03
4.900000000000000000e+02,4.599999999999999922e-02,7.166666666666661467e-03
4.950000000000000000e+02,4.599999999999999922e-02,7.333333333333330595e-03
5.000000000000000000e+02,4.599999999999999922e-02,7.333333333333330595e-03
5.050000000000000000e+02,4.599999999999999922e-02,7.666666666666661911e-03
5.100000000000000000e+02,4.599999999999999922e-02,7.666666666666661911e-03
5.150000000000000000e+02,4.599999999999999922e-02,7.499999999999999722e-03
5.200000000000000000e+02,4.599999999999999922e-02,7.499999999999999722e-03
5.250000000000000000e+02,4.499999999999999833e-02,6.666666666666661023e-03
5.300000000000000000e+02,4.499999999999999833e-02,6.499999999999998834e-03
5.350000000000000000e+02,4.499999999999999833e-02,6.333333333333329707e-03
5.400000000000000000e+02,4.499999999999999833e-02,6.166666666666660579e-03
5.450000000000000000e+02,4.499999999999999833e-02,6.166666666666660579e-03
5.500000000000000000e+02,4.499999999999999833e-02,6.166666666666660579e-03
5.550000000000000000e+02,4.499999999999999833e-02,5.999999999999998390e-03
5.600000000000000000e+02,4.499999999999999833e-02,6.166666666666660579e-03
5.650000000000000000e+02,4.499999999999999833e-02,5.833333333333329263e-03
5.700000000000000000e+02,4.399999999999999745e-02,4.833333333333328374e-03
5.750000000000000000e+02,4.399999999999999745e-02,4.833333333333328374e-03
5.800000000000000000e+02,4.399999999999999745e-02,4.833333333333328374e-03
5.850000000000000000e+02,4.399999999999999745e-02,4.833333333333328374e-03
5.900000000000000000e+02,4.399999999999999745e-02,4.333333333333327930e-03
5.950000000000000000e+02,4.399999999999999745e-02,4.499999999999997058e-03
6.000000000000000000e+02,4.399999999999999745e-02,4.166666666666658803e-03
6.050000000000000000e+02,4.499999999999999833e-02,5.166666666666659691e-03
6.100000000000000000e+02,4.399999999999999745e-02,4.166666666666658803e-03
6.150000000000000000e+02,4.399999999999999745e-02,4.499999999999997058e-03
6.200000000000000000e+02,4.399999999999999745e-02,4.666666666666659247e-03
6.250000000000000000e+02,4.399999999999999745e-02,4.666666666666659247e-03
6.300000000000000000e+02,4.399999999999999745e-02,4.833333333333328374e-03
6.350000000000000000e+02,4.399999999999999745e-02,4.833333333333328374e-03
6.400000000000000000e+02,4.399999999999999745e-02,5.166666666666659691e-03
6.450000000000000000e+02,4.399999999999999745e-02,5.166666666666659691e-03
6.500000000000000000e+02,4.399999999999999745e-02,5.333333333333328818e-03
6.550000000000000000e+02,4.399999999999999745e-02,5.333333333333328818e-03
6.600000000000000000e+02,4.399999999999999745e-02,5.166666666666659691e-03
6.650000000000000000e+02,4.399999999999999745e-02,5.333333333333328818e-03
6.700000000000000000e+02,4.399999999999999745e-02,5.499999999999997946e-03
6.750000000000000000e+02,4.399999999999999745e-02,5.499999999999997946e-03
6.800000000000000000e+02,4.399999999999999745e-02,5.666666666666660135e-03
6.850000000000000000e+02,4.399999999999999745e-02,5.666666666666660135e-03
6.900000000000000000e+02,4.399999999999999745e-02,5.833333333333329263e-03
6.950000000000000000e+02,4.499999999999999833e-02,6.666666666666661023e-03
7.000000000000000000e+02,4.499999999999999833e-02,6.499999999999998834e-03
7.050000000000000000e+02,4.599999999999999922e-02,6.666666666666661023e-03
7.100000000000000000e+02,4.700000000000000011e-02,6.333333333333336645e-03
7.150000000000000000e+02,4.800000000000000100e-02,6.333333333333336645e-03
7.200000000000000000e+02,4.900000000000000189e-02,7.166666666666668406e-03
7.250000000000000000e+02,5.000000000000000278e-02,7.333333333333337534e-03
7.300000000000000000e+02,5.099999999999999672e-02,6.500000000000005773e-03
7.350000000000000000e+02,5.299999999999999850e-02,6.500000000000005773e-03
7.400000000000000000e+02,5.399999999999999939e-02,7.000000000000006217e-03
7.450000000000000000e+02,5.399999999999999939e-02,6.833333333333337090e-03
7.500000000000000000e+02,5.500000000000000028e-02,7.833333333333337978e-03
7.550000000000000000e+02,5.500000000000000028e-02,7.833333333333337978e-03
7.600000000000000000e+02,5.500000000000000028e-02,7.833333333333337978e-03
7.650000000000000000e+02,5.500000000000000028e-02,8.166666666666669294e-03
7.700000000000000000e+02,5.500000000000000028e-02,8.500000000000007550e-03
7.750000000000000000e+02,5.399999999999999939e-02,7.833333333333337978e-03
7.800000000000000000e+02,5.399999999999999939e-02,8.500000000000007550e-03
7.850000000000000000e+02,5.399999999999999939e-02,8.833333333333338866e-03
7.900000000000000000e+02,5.299999999999999850e-02,8.666666666666669738e-03
7.950000000000000000e+02,5.199999999999999761e-02,8.000000000000007105e-03
8.000000000000000000e+02,5.199999999999999761e-02,8.833333333333331927e-03
8.050000000000000000e+02,5.199999999999999761e-02,8.833333333333331927e-03
8.100000000000000000e+02,5.199999999999999761e-02,8.999999999999994116e-03
8.150000000000000000e+02,5.199999999999999761e-02,8.833333333333331927e-03
8.200000000000000000e+02,5.299999999999999850e-02,9.166666666666670182e-03
8.250000000000000000e+02,5.299999999999999850e-02,8.333333333333338422e-03
8.300000000000000000e+02,5.600000000000000117e-02,9.000000000000007994e-03
8.350000000000000000e+02,5.800000000000000294e-02,8.666666666666669738e-03
8.400000000000000000e+02,5.899999999999999689e-02,9.166666666666663243e-03
8.450000000000000000e+02,5.899999999999999689e-02,8.333333333333331483e-03
8.500000000000000000e+02,5.999999999999999778e-02,8.500000000000000611e-03
8.550000000000000000e+02,6.099999999999999867e-02,9.000000000000001055e-03
8.600000000000000000e+02,6.199999999999999956e-02,8.500000000000000611e-03
8.650000000000000000e+02,6.400000000000000133e-02,8.500000000000000611e-03
8.700000000000000000e+02,6.700000000000000400e-02,8.500000000000007550e-03
8.750000000000000000e+02,7.000000000000000666e-02,8.833333333333338866e-03
8.800000000000000000e+02,6.900000000000000577e-02,8.666666666666676677e-03
8.850000000000000000e+02,6.800000000000000488e-02,8.500000000000007550e-03
8.900000000000000000e+02,6.700000000000000400e-02,7.833333333333337978e-03
8.950000000000000000e+02,6.800000000000000488e-02,8.000000000000007105e-03
9.000000000000000000e+02,6.900000000000000577e-02,7.833333333333337978e-03
9.050000000000000000e+02,7.000000000000000666e-02,7.333333333333344473e-03
9.100000000000000000e+02,7.199999999999999456e-02,6.833333333333330151e-03
9.150000000000000000e+02,7.499999999999999722e-02,6.833333333333330151e-03
9.200000000000000000e+02,7.900000000000000078e-02,7.166666666666668406e-03
9.250000000000000000e+02,8.599999999999999312e-02,6.999999999999992339e-03
9.300000000000000000e+02,9.400000000000000022e-02,5.666666666666680952e-03
9.350000000000000000e+02,1.059999999999999970e-01,5.000000000000004441e-03
9.400000000000000000e+02,1.170000000000000068e-01,3.166666666666664853e-03
9.450000000000000000e+02,1.360000000000000098e-01,2.833333333333326598e-03
9.500000000000000000e+02,1.610000000000000042e-01,1.166666666666649199e-03
9.550000000000000000e+02,1.910000000000000031e-01,-1.166666666666676955e-03
9.600000000000000000e+02,2.149999999999999967e-01,-4.166666666666651864e-03
9.650000000000000000e+02,2.260000000000000064e-01,-4.000000000000003553e-03
9.700000000000000000e+02,2.310000000000000109e-01,-3.999999999999975797e-03
9.750000000000000000e+02,2.330000000000000127e-01,-4.666666666666652308e-03
9.800000000000000000e+02,2.330000000000000127e-01,-3.999999999999948042e-03
9.850000000000000000e+02,2.290000000000000091e-01,-3.833333333333327486e-03
9.900000000000000000e+02,2.210000000000000020e-01,-3.166666666666706487e-03
9.950000000000000000e+02,2.179999999999999993e-01,-1.833333333333325710e-03
