wavelength,absorbance,subtracted_absorbance
3.000000000000000000e+02,9.759999999999999787e-01,3.191666666666664876e-01
3.050000000000000000e+02,8.219999999999999529e-01,3.081666666666666998e-01
3.100000000000000000e+02,7.429999999999999938e-01,2.906666666666666843e-01
3.150000000000000000e+02,6.889999999999999458e-01,2.753333333333333188e-01
3.200000000000000000e+02,6.340000000000000080e-01,2.586666666666667114e-01
3.250000000000000000e+02,5.849999999999999645e-01,2.415000000000000480e-01
3.300000000000000000e+02,5.420000000000000373e-01,2.256666666666666821e-01
3.350000000000000000e+02,5.000000000000000000e-01,2.118333333333333734e-01
3.400000000000000000e+02,4.630000000000000226e-01,1.978333333333333055e-01
3.450000000000000000e+02,4.349999999999999978e-01,1.860000000000000264e-01
3.500000000000000000e+02,4.129999999999999782e-01,1.748333333333333406e-01
3.550000000000000000e+02,3.940000000000000169e-01,1.660000000000000364e-01
3.600000000000000000e+02,3.699999999999999956e-01,1.566666666666666485e-01
3.650000000000000000e+02,3.340000000000000191e-01,1.446666666666666934e-01
3.700000000000000000e+02,2.610000000000000098e-01,1.238333333333333230e-01
3.750000000000000000e+02,1.900000000000000022e-01,1.020000000000000212e-01
3.800000000000000000e+02,1.580000000000000016e-01,8.916666666666665797e-02
3.850000000000000000e+02,1.409999999999999865e-01,8.116666666666666474e-02
3.900000000000000000e+02,1.300000000000000044e-01,7.450000000000001066e-02
3.950000000000000000e+02,1.219999999999999973e-01,6.916666666666665408e-02
4.000000000000000000e+02,1.140000000000000041e-01,6.316666666666667651e-02
4.050000000000000000e+02,1.079999999999999988e-01,5.883333333333333470e-02
4.100000000000000000e+02,1.019999999999999934e-01,5.383333333333333026e-02
4.150000000000000000e+02,9.600000000000000200e-02,4.883333333333333970e-02
4.200000000000000000e+02,9.099999999999999756e-02,4.500000000000000527e-02
4.250000000000000000e+02,8.699999999999999400e-02,4.150000000000000216e-02
4.300000000000000000e+02,8.300000000000000433e-02,3.850000000000001338e-02
4.350000000000000000e+02,8.000000000000000167e-02,3.633333333333334247e-02
4.400000000000000000e+02,7.599999999999999811e-02,3.283333333333333243e-02
4.450000000000000000e+02,7.299999999999999545e-02,3.066666666666666152e-02
4.500000000000000000e+02,7.000000000000000666e-02,2.800000000000000405e-02
4.550000000000000000e+02,6.800000000000000488e-02,2.650000000000000272e-02
4.600000000000000000e+02,6.600000000000000311e-02,2.500000000000000139e-02
4.650000000000000000e+02,6.400000000000000133e-02,2.366666666666666224e-02
4.700000000000000000e+02,6.199999999999999956e-02,2.199999999999999872e-02
4.750000000000000000e+02,5.999999999999999778e-02,2.033333333333332826e-02
4.800000000000000000e+02,5.899999999999999689e-02,1.966666666666665869e-02
4.850000000000000000e+02,5.700000000000000205e-02,1.783333333333333298e-02
4.900000000000000000e+02,5.600000000000000117e-02,1.716666666666666341e-02
4.950000000000000000e+02,5.500000000000000028e-02,1.633333333333333165e-02
5.000000000000000000e+02,5.399999999999999939e-02,1.533333333333333076e-02
5.050000000000000000e+02,5.299999999999999850e-02,1.466666666666666119e-02
5.100000000000000000e+02,5.199999999999999761e-02,1.366666666666666030e-02
5.150000000000000000e+02,5.099999999999999672e-02,1.249999999999999722e-02
5.200000000000000000e+02,5.000000000000000278e-02,1.150000000000000328e-02
5.250000000000000000e+02,5.000000000000000278e-02,1.166666666666666546e-02
5.300000000000000000e+02,4.900000000000000189e-02,1.050000000000000239e-02
5.350000000000000000e+02,4.900000000000000189e-02,1.033333333333333326e-02
5.400000000000000000e+02,4.800000000000000100e-02,9.166666666666663243e-03
5.450000000000000000e+02,4.800000000000000100e-02,9.166666666666663243e-03
5.500000000000000000e+02,4.700000000000000011e-02,8.166666666666662355e-03
5.550000000000000000e+02,4.700000000000000011e-02,8.000000000000000167e-03
5.600000000000000000e+02,4.599999999999999922e-02,7.166666666666661467e-03
5.650000000000000000e+02,4.599999999999999922e-02,6.833333333333330151e-03
5.700000000000000000e+02,4.599999999999999922e-02,6.833333333333330151e-03
5.750000000000000000e+02,4.499999999999999833e-02,5.833333333333329263e-03
5.800000000000000000e+02,4.499999999999999833e-02,5.833333333333329263e-03
5.850000000000000000e+02,4.499999999999999833e-02,5.833333333333329263e-03
5.900000000000000000e+02,4.499999999999999833e-02,5.333333333333328818e-03
5.950000000000000000e+02,4.499999999999999833e-02,5.499999999999997946e-03
6.000000000000000000e+02,4.399999999999999745e-02,4.166666666666658803e-03
6.050000000000000000e+02,4.399999999999999745e-02,4.166666666666658803e-03
6.100000000000000000e+02,4.399999999999999745e-02,4.166666666666658803e-03
6.150000000000000000e+02,4.399999999999999745e-02,4.499999999999997058e-03
6.200000000000000000e+02,4.299999999999999656e-02,3.666666666666658358e-03
6.250000000000000000e+02,4.299999999999999656e-02,3.666666666666658358e-03
6.300000000000000000e+02,4.299999999999999656e-02,3.833333333333327486e-03
6.350000000000000000e+02,4.299999999999999656e-02,3.833333333333327486e-03
6.400000000000000000e+02,4.299999999999999656e-02,4.166666666666658803e-03
6.450000000000000000e+02,4.299999999999999656e-02,4.166666666666658803e-03
6.500000000000000000e+02,4.200000000000000261e-02,3.333333333333333981e-03
6.550000000000000000e+02,4.200000000000000261e-02,3.333333333333333981e-03
6.600000000000000000e+02,4.200000000000000261e-02,3.166666666666664853e-03
6.650000000000000000e+02,4.200000000000000261e-02,3.333333333333333981e-03
6.700000000000000000e+02,4.200000000000000261e-02,3.500000000000003109e-03
6.750000000000000000e+02,4.200000000000000261e-02,3.500000000000003109e-03
6.800000000000000000e+02,4.200000000000000261e-02,3.666666666666665297e-03
6.850000000000000000e+02,4.200000000000000261e-02,3.666666666666665297e-03
6.900000000000000000e+02,4.200000000000000261e-02,3.833333333333334425e-03
6.950000000000000000e+02,4.200000000000000261e-02,3.666666666666665297e-03
7.000000000000000000e+02,4.200000000000000261e-02,3.500000000000003109e-03
7.050000000000000000e+02,4.299999999999999656e-02,3.666666666666658358e-03
7.100000000000000000e+02,4.499999999999999833e-02,4.333333333333334869e-03
7.150000000000000000e+02,4.599999999999999922e-02,4.333333333333334869e-03
7.200000000000000000e+02,4.700000000000000011e-02,5.166666666666666630e-03
7.250000000000000000e+02,4.800000000000000100e-02,5.333333333333335757e-03
7.300000000000000000e+02,4.900000000000000189e-02,4.500000000000010936e-03
7.350000000000000000e+02,5.099999999999999672e-02,4.500000000000003997e-03
7.400000000000000000e+02,5.199999999999999761e-02,5.000000000000004441e-03
7.450000000000000000e+02,5.199999999999999761e-02,4.833333333333335313e-03
7.500000000000000000e+02,5.199999999999999761e-02,4.833333333333335313e-03
7.550000000000000000e+02,5.199999999999999761e-02,4.833333333333335313e-03
7.600000000000000000e+02,5.199999999999999761e-02,4.833333333333335313e-03
7.650000000000000000e+02,5.099999999999999672e-02,4.166666666666665741e-03
7.700000000000000000e+02,5.099999999999999672e-02,4.500000000000003997e-03
7.750000000000000000e+02,5.099999999999999672e-02,4.833333333333335313e-03
7.800000000000000000e+02,5.099999999999999672e-02,5.500000000000004885e-03
7.850000000000000000e+02,5.000000000000000278e-02,4.833333333333342252e-03
7.900000000000000000e+02,5.000000000000000278e-02,5.666666666666674013e-03
7.950000000000000000e+02,4.900000000000000189e-02,5.000000000000011380e-03
8.000000000000000000e+02,4.900000000000000189e-02,5.833333333333336201e-03
8.050000000000000000e+02,4.900000000000000189e-02,5.833333333333336201e-03
8.100000000000000000e+02,4.900000000000000189e-02,5.999999999999998390e-03
8.150000000000000000e+02,4.900000000000000189e-02,5.833333333333336201e-03
8.200000000000000000e+02,5.000000000000000278e-02,6.166666666666674457e-03
8.250000000000000000e+02,5.000000000000000278e-02,5.333333333333342696e-03
8.300000000000000000e+02,5.199999999999999761e-02,5.000000000000004441e-03
8.350000000000000000e+02,5.399999999999999939e-02,4.666666666666666186e-03
8.400000000000000000e+02,5.500000000000000028e-02,5.166666666666666630e-03
8.450000000000000000e+02,5.600000000000000117e-02,5.333333333333335757e-03
8.500000000000000000e+02,5.700000000000000205e-02,5.500000000000004885e-03
8.550000000000000000e+02,5.800000000000000294e-02,6.000000000000005329e-03
8.600000000000000000e+02,5.899999999999999689e-02,5.499999999999997946e-03
8.650000000000000000e+02,6.099999999999999867e-02,5.499999999999997946e-03
8.700000000000000000e+02,6.400000000000000133e-02,5.500000000000004885e-03
8.750000000000000000e+02,6.700000000000000400e-02,5.833333333333336201e-03
8.800000000000000000e+02,6.600000000000000311e-02,5.666666666666674013e-03
8.850000000000000000e+02,6.400000000000000133e-02,4.500000000000003997e-03
8.900000000000000000e+02,6.400000000000000133e-02,4.833333333333335313e-03
8.950000000000000000e+02,6.500000000000000222e-02,5.000000000000004441e-03
9.000000000000000000e+02,6.600000000000000311e-02,4.833333333333335313e-03
9.050000000000000000e+02,6.700000000000000400e-02,4.333333333333341808e-03
9.100000000000000000e+02,7.000000000000000666e-02,4.833333333333342252e-03
9.150000000000000000e+02,7.299999999999999545e-02,4.833333333333328374e-03
9.200000000000000000e+02,7.599999999999999811e-02,4.166666666666665741e-03
9.250000000000000000e+02,8.300000000000000433e-02,4.000000000000003553e-03
9.300000000000000000e+02,9.199999999999999845e-02,3.666666666666679175e-03
9.350000000000000000e+02,1.029999999999999943e-01,2.000000000000001776e-03
9.400000000000000000e+02,1.150000000000000050e-01,1.166666666666663077e-03
9.450000000000000000e+02,1.340000000000000080e-01,8.333333333333248216e-04
9.500000000000000000e+02,1.580000000000000016e-01,-1.833333333333353465e-03
9.550000000000000000e+02,1.890000000000000013e-01,-3.166666666666678731e-03
9.600000000000000000e+02,2.139999999999999958e-01,-5.166666666666652752e-03
9.650000000000000000e+02,2.240000000000000047e-01,-6.000000000000005329e-03
9.700000000000000000e+02,2.290000000000000091e-01,-5.999999999999977573e-03
9.750000000000000000e+02,2.310000000000000109e-01,-6.666666666666654084e-03
9.800000000000000000e+02,2.290000000000000091e-01,-7.999999999999951594e-03
9.850000000000000000e+02,2.250000000000000056e-01,-7.833333333333331039e-03
9.900000000000000000e+02,2.169999999999999984e-01,-7.166666666666710039e-03
9.950000000000000000e+02,2.119999999999999940e-01,-7.833333333333331039e-03
