wavelength,absorbance,subtracted_absorbance
3.000000000000000000e+02,9.280000000000000471e-01,2.711666666666665559e-01
3.050000000000000000e+02,7.610000000000000098e-01,2.471666666666667567e-01
3.100000000000000000e+02,6.710000000000000409e-01,2.186666666666667314e-01
3.150000000000000000e+02,6.069999999999999840e-01,1.933333333333333570e-01
3.200000000000000000e+02,5.480000000000000426e-01,1.726666666666667460e-01
3.250000000000000000e+02,4.979999999999999982e-01,1.545000000000000817e-01
3.300000000000000000e+02,4.550000000000000155e-01,1.386666666666666603e-01
3.350000000000000000e+02,4.149999999999999800e-01,1.268333333333333535e-01
3.400000000000000000e+02,3.790000000000000036e-01,1.138333333333332864e-01
3.450000000000000000e+02,3.519999999999999796e-01,1.030000000000000082e-01
3.500000000000000000e+02,3.330000000000000182e-01,9.483333333333338055e-02
3.550000000000000000e+02,3.150000000000000022e-01,8.700000000000002176e-02
3.600000000000000000e+02,2.939999999999999836e-01,8.066666666666663654e-02
3.650000000000000000e+02,2.630000000000000115e-01,7.366666666666668584e-02
3.700000000000000000e+02,2.020000000000000129e-01,6.483333333333332615e-02
3.750000000000000000e+02,1.459999999999999909e-01,5.800000000000000988e-02
3.800000000000000000e+02,1.219999999999999973e-01,5.316666666666665375e-02
3.850000000000000000e+02,1.100000000000000006e-01,5.016666666666667190e-02
3.900000000000000000e+02,1.019999999999999934e-01,4.649999999999999273e-02
3.950000000000000000e+02,9.800000000000000377e-02,4.516666666666666746e-02
4.000000000000000000e+02,9.299999999999999933e-02,4.216666666666666480e-02
4.050000000000000000e+02,8.999999999999999667e-02,4.083333333333333259e-02
4.100000000000000000e+02,8.699999999999999400e-02,3.883333333333333082e-02
4.150000000000000000e+02,8.400000000000000522e-02,3.683333333333334292e-02
4.200000000000000000e+02,8.200000000000000344e-02,3.600000000000001116e-02
4.250000000000000000e+02,7.900000000000000078e-02,3.350000000000000894e-02
4.300000000000000000e+02,7.699999999999999900e-02,3.250000000000000805e-02
4.350000000000000000e+02,7.599999999999999811e-02,3.233333333333333892e-02
4.400000000000000000e+02,7.399999999999999634e-02,3.083333333333333065e-02
4.450000000000000000e+02,7.299999999999999545e-02,3.066666666666666152e-02
4.500000000000000000e+02,7.299999999999999545e-02,3.099999999999999284e-02
4.550000000000000000e+02,7.199999999999999456e-02,3.049999999999999239e-02
4.600000000000000000e+02,7.099999999999999367e-02,2.999999999999999195e-02
4.650000000000000000e+02,7.099999999999999367e-02,3.066666666666665458e-02
4.700000000000000000e+02,7.000000000000000666e-02,3.000000000000000583e-02
4.750000000000000000e+02,6.900000000000000577e-02,2.933333333333333626e-02
4.800000000000000000e+02,6.800000000000000488e-02,2.866666666666666669e-02
4.850000000000000000e+02,6.800000000000000488e-02,2.883333333333333581e-02
4.900000000000000000e+02,6.700000000000000400e-02,2.816666666666666624e-02
4.950000000000000000e+02,6.700000000000000400e-02,2.833333333333333537e-02
5.000000000000000000e+02,6.700000000000000400e-02,2.833333333333333537e-02
5.050000000000000000e+02,6.700000000000000400e-02,2.866666666666666669e-02
5.100000000000000000e+02,6.700000000000000400e-02,2.866666666666666669e-02
5.150000000000000000e+02,6.700000000000000400e-02,2.850000000000000450e-02
5.200000000000000000e+02,6.800000000000000488e-02,2.950000000000000538e-02
5.250000000000000000e+02,6.900000000000000577e-02,3.066666666666666846e-02
5.300000000000000000e+02,6.900000000000000577e-02,3.050000000000000627e-02
5.350000000000000000e+02,7.000000000000000666e-02,3.133333333333333803e-02
5.400000000000000000e+02,7.000000000000000666e-02,3.116666666666666891e-02
5.450000000000000000e+02,7.099999999999999367e-02,3.216666666666665592e-02
5.500000000000000000e+02,7.099999999999999367e-02,3.216666666666665592e-02
5.550000000000000000e+02,7.199999999999999456e-02,3.299999999999999462e-02
5.600000000000000000e+02,7.199999999999999456e-02,3.316666666666665680e-02
5.650000000000000000e+02,7.299999999999999545e-02,3.383333333333332638e-02
5.700000000000000000e+02,7.299999999999999545e-02,3.383333333333332638e-02
5.750000000000000000e+02,7.399999999999999634e-02,3.483333333333332726e-02
5.800000000000000000e+02,7.399999999999999634e-02,3.483333333333332726e-02
5.850000000000000000e+02,7.499999999999999722e-02,3.583333333333332815e-02
5.900000000000000000e+02,7.499999999999999722e-02,3.533333333333332771e-02
5.950000000000000000e+02,7.499999999999999722e-02,3.549999999999999684e-02
6.000000000000000000e+02,7.599999999999999811e-02,3.616666666666665947e-02
6.050000000000000000e+02,7.599999999999999811e-02,3.616666666666665947e-02
6.100000000000000000e+02,7.599999999999999811e-02,3.616666666666665947e-02
6.150000000000000000e+02,7.499999999999999722e-02,3.549999999999999684e-02
6.200000000000000000e+02,7.499999999999999722e-02,3.566666666666665902e-02
6.250000000000000000e+02,7.499999999999999722e-02,3.566666666666665902e-02
6.300000000000000000e+02,7.499999999999999722e-02,3.583333333333332815e-02
6.350000000000000000e+02,7.399999999999999634e-02,3.483333333333332726e-02
6.400000000000000000e+02,7.399999999999999634e-02,3.516666666666665858e-02
6.450000000000000000e+02,7.399999999999999634e-02,3.516666666666665858e-02
6.500000000000000000e+02,7.299999999999999545e-02,3.433333333333332682e-02
6.550000000000000000e+02,7.299999999999999545e-02,3.433333333333332682e-02
6.600000000000000000e+02,7.299999999999999545e-02,3.416666666666665769e-02
6.650000000000000000e+02,7.199999999999999456e-02,3.333333333333332593e-02
6.700000000000000000e+02,7.199999999999999456e-02,3.349999999999999506e-02
6.750000000000000000e+02,7.099999999999999367e-02,3.249999999999999417e-02
6.800000000000000000e+02,7.099999999999999367e-02,3.266666666666665636e-02
6.850000000000000000e+02,7.099999999999999367e-02,3.266666666666665636e-02
6.900000000000000000e+02,7.000000000000000666e-02,3.183333333333333848e-02
6.950000000000000000e+02,7.000000000000000666e-02,3.166666666666666935e-02
7.000000000000000000e+02,7.000000000000000666e-02,3.150000000000000716e-02
7.050000000000000000e+02,7.000000000000000666e-02,3.066666666666666846e-02
7.100000000000000000e+02,7.099999999999999367e-02,3.033333333333333021e-02
7.150000000000000000e+02,7.099999999999999367e-02,2.933333333333332932e-02
7.200000000000000000e+02,7.199999999999999456e-02,3.016666666666666108e-02
7.250000000000000000e+02,7.199999999999999456e-02,2.933333333333332932e-02
7.300000000000000000e+02,7.399999999999999634e-02,2.950000000000000538e-02
7.350000000000000000e+02,7.599999999999999811e-02,2.950000000000000538e-02
7.400000000000000000e+02,7.599999999999999811e-02,2.900000000000000494e-02
7.450000000000000000e+02,7.599999999999999811e-02,2.883333333333333581e-02
7.500000000000000000e+02,7.599999999999999811e-02,2.883333333333333581e-02
7.550000000000000000e+02,7.599999999999999811e-02,2.883333333333333581e-02
7.600000000000000000e+02,7.599999999999999811e-02,2.883333333333333581e-02
7.650000000000000000e+02,7.599999999999999811e-02,2.916666666666666713e-02
7.700000000000000000e+02,7.599999999999999811e-02,2.950000000000000538e-02
7.750000000000000000e+02,7.499999999999999722e-02,2.883333333333333581e-02
7.800000000000000000e+02,7.499999999999999722e-02,2.950000000000000538e-02
7.850000000000000000e+02,7.399999999999999634e-02,2.883333333333333581e-02
7.900000000000000000e+02,7.399999999999999634e-02,2.966666666666666757e-02
7.950000000000000000e+02,7.299999999999999545e-02,2.900000000000000494e-02
8.000000000000000000e+02,7.299999999999999545e-02,2.983333333333332976e-02
8.050000000000000000e+02,7.299999999999999545e-02,2.983333333333332976e-02
8.100000000000000000e+02,7.299999999999999545e-02,2.999999999999999195e-02
8.150000000000000000e+02,7.299999999999999545e-02,2.983333333333332976e-02
8.200000000000000000e+02,7.299999999999999545e-02,2.916666666666666713e-02
8.250000000000000000e+02,7.499999999999999722e-02,3.033333333333333715e-02
8.300000000000000000e+02,7.699999999999999900e-02,3.000000000000000583e-02
8.350000000000000000e+02,7.900000000000000078e-02,2.966666666666666757e-02
8.400000000000000000e+02,8.000000000000000167e-02,3.016666666666666802e-02
8.450000000000000000e+02,8.100000000000000255e-02,3.033333333333333715e-02
8.500000000000000000e+02,8.200000000000000344e-02,3.050000000000000627e-02
8.550000000000000000e+02,8.300000000000000433e-02,3.100000000000000672e-02
8.600000000000000000e+02,8.400000000000000522e-02,3.050000000000000627e-02
8.650000000000000000e+02,8.599999999999999312e-02,3.049999999999999239e-02
8.700000000000000000e+02,8.899999999999999578e-02,3.049999999999999933e-02
8.750000000000000000e+02,9.199999999999999845e-02,3.083333333333333065e-02
8.800000000000000000e+02,9.099999999999999756e-02,3.066666666666666846e-02
8.850000000000000000e+02,9.099999999999999756e-02,3.150000000000000022e-02
8.900000000000000000e+02,9.099999999999999756e-02,3.183333333333333154e-02
8.950000000000000000e+02,9.199999999999999845e-02,3.200000000000000067e-02
9.000000000000000000e+02,9.299999999999999933e-02,3.183333333333333154e-02
9.050000000000000000e+02,9.400000000000000022e-02,3.133333333333333803e-02
9.100000000000000000e+02,9.700000000000000289e-02,3.183333333333333848e-02
9.150000000000000000e+02,1.000000000000000056e-01,3.183333333333333848e-02
9.200000000000000000e+02,1.039999999999999952e-01,3.216666666666666285e-02
9.250000000000000000e+02,1.110000000000000014e-01,3.200000000000000067e-02
9.300000000000000000e+02,1.199999999999999956e-01,3.166666666666667629e-02
9.350000000000000000e+02,1.320000000000000062e-01,3.100000000000001366e-02
9.400000000000000000e+02,1.449999999999999900e-01,3.116666666666664809e-02
9.450000000000000000e+02,1.640000000000000069e-01,3.083333333333332371e-02
9.500000000000000000e+02,1.900000000000000022e-01,3.016666666666664720e-02
9.550000000000000000e+02,2.220000000000000029e-01,2.983333333333332282e-02
9.600000000000000000e+02,2.479999999999999982e-01,2.883333333333334969e-02
9.650000000000000000e+02,2.600000000000000089e-01,2.999999999999999889e-02
9.700000000000000000e+02,2.640000000000000124e-01,2.900000000000002576e-02
9.750000000000000000e+02,2.670000000000000151e-01,2.933333333333335013e-02
9.800000000000000000e+02,2.670000000000000151e-01,3.000000000000005440e-02
9.850000000000000000e+02,2.620000000000000107e-01,2.916666666666667407e-02
9.900000000000000000e+02,2.550000000000000044e-01,3.083333333333329596e-02
9.950000000000000000e+02,2.489999999999999991e-01,2.916666666666667407e-02
